t_center,rms_emg1,rms_emg2,rms_emg3,rms_emg4,rms_emg5,rms_emg6,rms_emg7,rms_emg8,mean_z_emg1,mean_z_emg2,mean_z_emg3,mean_z_emg4,mean_z_emg5,mean_z_emg6,mean_z_emg7,mean_z_emg8,channel_count,frac_active,global_active
0.10200000000000001,0.5713708628911901,0.4270262265862078,1.8253443352690004,0.8813375266862205,2.09295290631757,0.559922516005318,1.0479174808500005,1.2867416282362563,-0.5075040806746707,-0.760507902397165,4.710762901114079,0.2946619185302476,4.637807174297866,-0.9068168637242899,1.3462717144872747,2.445293499522039,4,0.5,1
0.162,0.5949331855826363,0.5812323850866496,2.015573233130686,0.8409425915870151,2.632816246759498,0.6572017905600737,1.2234704762210589,1.3917332661489337,-0.27614583036508283,-0.07952060939864748,5.766422825335881,0.11415863391650277,7.087095471754153,-0.04028657920287753,2.195312596372039,3.3419292873600477,4,0.5,1
0.22200000000000003,0.5886770242368511,0.561428075700887,1.535352774113621,0.556120620843034,2.4734877065874556,0.4873179294961408,0.907405680949748,1.0696477426453286,-0.31281748614575494,-0.19608428646943998,3.3292341074939116,-0.9296674802322733,6.498883953888871,-1.1043813885931533,0.8346824339429398,1.817292397618754,3,0.375,0
0.28200000000000003,0.6146377723801166,0.4159839332659354,0.7752101335759709,0.6109568748057193,2.0001848160135887,0.3435426705741845,0.5325479328333242,0.911211435858336,-0.13956408088639913,-0.7749253803328514,-0.12326185438423048,-0.741992931851854,4.6596184036425585,-1.8271531347486825,-0.41783577761022617,1.1393596264613646,2,0.25,0
0.34199999999999997,0.6887270028639203,0.5671026146522843,0.4461697237668938,0.7382401496263303,1.25147238595372,0.4231628401244988,0.7804797724974998,0.819712985292016,0.28289732243827226,-0.24367932186139352,-1.1449325600137017,-0.19025320250891775,1.4648301910281845,-1.4346434691570884,0.3182425705681702,0.6663313098869535,1,0.125,0
0.402,0.8644549573986514,0.8552674685330814,0.8560530796986363,0.8271545403321866,0.43169884301322825,0.8550625415474377,1.2655097268612923,0.6166039649556135,1.396317618385554,1.0070161286701758,0.5253840805802305,0.1177783265769284,-1.1473060952456482,0.7416017457727208,2.2594690750924245,-0.3044870906528107,4,0.5,1
0.46199999999999997,0.8478457335604181,0.8860082427602619,1.0138239615714513,0.9520946821281469,0.48063573027525186,1.1819178329976108,1.2880130919406105,0.5175738995248081,1.2683620436974372,1.1470851982640835,1.3881402486940402,0.5951740530675362,-0.9916614489394334,2.9863116868456046,2.391280470660757,-0.7275843480012693,5,0.625,1
0.522,0.6148607581517171,0.6343839078491534,0.741975324459545,0.8353586558746809,0.9916283340778665,1.142183952248003,0.8285164062996213,0.5974985510067522,-0.2552174617823817,0.043233566430277835,0.04242800560803186,0.10010518091177274,0.8939306865334901,2.76490470492586,0.5155656904954327,-0.3644988369706008,2,0.25,0
0.5820000000000001,0.4553808140980105,0.4355900269724885,0.46939376321331006,0.5647345321880675,1.1350603597419124,0.8268718296962082,0.49506247670615955,0.6447647129523209,-1.167492821608471,-0.6552233131165272,-0.926720827961551,-0.86783409334029,1.61238682736088,0.7788064120708701,-0.5500787767005187,-0.1243371809525934,2,0.25,0
0.6419999999999999,0.5904120066471766,0.43322900703865186,0.47551993432333867,0.4094026289078542,0.9003308145265467,0.5932751701988237,0.5061793592609057,0.7780647922017496,-0.40664508153959655,-0.6633180699029003,-0.8914598454296657,-1.4466024490775344,0.7512721170325608,-0.3993509569006297,-0.49481721541105345,0.444967045927734,0,0.0,0
0.702,0.6434612417615218,0.5081878588410983,0.5846998591166777,0.3915006949282864,0.6997049808743809,0.6191284647297051,0.5520605596846874,0.8799893496613288,-0.0015496233370247414,-0.37481219420703127,-0.47578394353708403,-1.5130279509641387,0.04735924999594312,-0.2329677997466361,-0.31601811424264964,0.9785093808339201,1,0.125,0
0.762,0.5196543023658249,0.48842636358347014,0.8093269805579932,0.7161355455351458,0.6053983156088595,0.6122395026243462,0.5695918007753258,0.7476104978818168,-0.7791413554775583,-0.49457302413207227,0.5038514895383409,-0.44749217733677504,-0.28196955264226753,-0.26771275146378853,-0.24806960087209773,0.3054166649916386,0,0.0,0
0.8220000000000001,0.5491500091396919,0.30406006864937485,0.8631013250845365,0.963493137599466,0.6342333929053978,0.6445669468273703,0.5519761672236201,0.5236458268623421,-0.5942199416691668,-1.2932253166022603,0.7744654047704421,0.6296177233398902,-0.1800831394327487,-0.08550371882597772,-0.3156798003558738,-0.7540127392944006,0,0.0,0
0.882,0.5668041839333272,0.21856699601498447,0.653125619438924,0.8669266371251533,0.6683362430628736,0.6682580771281319,0.5588675538221148,0.4461438589390716,-0.470572159588345,-1.5646258327603146,-0.24828588761140358,0.23435406545600282,-0.04987249384933972,0.0622764447432827,-0.28997310306624385,-1.0776845238769908,0,0.0,0
0.942,0.42259895697337146,0.3525193409181818,0.41466612400983255,0.6256839202894979,0.7200217946256856,0.6767333385080312,0.5348685332175998,0.6358912059700613,-1.4287372201871433,-1.0538346838827037,-1.191971754874339,-0.6232550825467277,0.1274879220081773,0.10978550524437221,-0.40028187829913975,-0.2522283788199516,0,0.0,0
1.002,0.30221734855944493,0.452982521707704,0.49066666495626526,0.4747204709279478,0.7418275538541624,0.66582846431409,0.41322205218412217,0.83898668874432,-2.1157444252968385,-0.5871948838288943,-0.8886073803751748,-1.213416779713179,0.20600178412612177,0.042003143810618614,-0.8896113230345585,0.773367711312634,0,0.0,0
1.0619999999999998,0.3224265817653227,0.4514255516203742,0.5862780620719634,0.32346961748393616,0.6585021303552211,0.5886429500949188,0.45403651260355704,0.923628692981714,-2.0051606514427154,-0.5903107800441384,-0.41300399374545266,-1.770310197543042,-0.0987835829024933,-0.40591718992526077,-0.7563700119302239,1.1989896274822454,1,0.125,0
1.1219999999999999,0.5161208181134781,0.4355349639010931,0.8255350674302164,0.2823852035767687,0.5751049804531274,0.5774911006528017,0.5852899533906877,0.8638986290010288,-0.9060687279417102,-0.6549330650378847,0.48661007975495973,-1.9006564254419158,-0.39701148845000417,-0.4717570876915714,-0.199973401546361,0.8794162578011403,1,0.125,0
1.182,0.6460355890050393,0.5897506472087286,0.915903976514636,0.35229548403849564,0.47354654495090165,0.6476803756432464,0.6100794013365974,0.5994914336273163,0.042965050069289475,-0.10248498113312099,0.9173188594837232,-1.6453184910814291,-0.7871911172625033,-0.06876886196506353,-0.09685158419774083,-0.6330318912562878,1,0.125,0
1.242,0.6648023101421872,0.8054014075519599,0.6052095314478539,0.4641723765228668,0.44331945264438266,0.6945197616708573,0.7714713109597573,0.27339266423679837,0.17604943792668135,0.8205726050856065,-0.6662003096397221,-1.2356570482883542,-0.9008910724223607,0.21750810718270272,0.4570331665326623,-1.9731557652383207,0,0.0,0
1.302,0.6497019566002302,0.8242879073419298,0.35246747686443347,0.6014677935244146,0.7200773187519397,0.6751441074761161,0.8168694378738881,0.44761171525306376,0.07564995744473473,0.9260853430907948,-1.4826643692269121,-0.7165066705909665,0.006691779297942384,0.10003722043408854,0.6349790638882772,-1.2937367845988446,1,0.125,0
1.362,0.5095554766126996,0.6939863974820673,0.5321068989762924,0.7340010509268792,0.8214172272562449,0.6518754144513034,0.5429124128063665,0.6615476142227903,-0.954759988121224,0.3938922585280598,-0.7116447372599662,-0.21289148243928116,0.4681084872752221,-0.034874314600681966,-0.5648484278087741,-0.08000729322312054,0,0.0,0
1.4220000000000002,0.30795819024465065,0.5616774995687572,0.586188609682756,0.8540502328748001,0.5999036915008935,0.6462591663597873,0.3187533885074122,0.686262351569855,-2.1590068205762307,-0.16737243739365582,-0.4196416932526556,0.24055891214594913,-0.40754398670814035,-0.07008402686229363,-1.2315362973150947,0.07129547219592983,0,0.0,0
1.482,0.4409873784463453,0.4090078187521653,0.5031216453332219,0.8502763790954149,0.44966839295879213,0.6099817920414609,0.41963817186280183,0.6281965590787324,-1.4913961639645417,-0.7985156340278016,-0.7798507356199118,0.2312850232826135,-0.8562547636963164,-0.28443591570838683,-0.8474649997855702,-0.20026278199457,0,0.0,0
1.542,0.8427659435161001,0.5132007948428559,0.49493697088409566,0.7980251725599061,0.4547259146771466,0.6052322873117038,0.49470909294313525,0.5788770779049713,1.0294863016485807,-0.4786492446308512,-0.8087654627092276,0.0432793688252048,-0.8368976435054757,-0.3059759856739965,-0.5374033193103546,-0.43630952231225884,1,0.125,0
1.6019999999999999,1.0107308796275105,0.8000084796736137,0.5488414294656507,0.8337037547193907,0.4478053608731621,0.6119196690142885,0.6584337970889198,0.6574051297588801,2.324366762060956,0.7550147320616486,-0.5739098244160616,0.17723439534719157,-0.8637819511384958,-0.26871390368183484,0.02020136464774434,-0.10887191459295338,1,0.125,0
1.662,0.7843207597726234,1.0220182238164905,0.6334099465543069,0.7485548340768878,0.4948910169805393,0.47905819481345757,0.9718900134493718,0.7656314754819579,0.6673348341851201,1.7283227271633725,-0.21726569441132912,-0.19265328830832554,-0.6895658302605748,-1.1932394084705595,1.2075376120368215,0.43192811024204136,2,0.25,0
1.722,0.42315507193161506,1.1589366986454104,0.6337513242533042,0.5848325978337191,0.4925861585005441,0.24439036138680095,0.9393115845802184,0.6765570542283244,-1.5056679213197206,2.300987199473698,-0.21644241915764062,-0.7844731214702009,-0.6944507210122873,-2.614927196410545,1.0196096693585444,-0.02499967571320737,1,0.125,0
1.782,0.3578706335655325,1.0959994367701,0.7224042841402677,0.7496906494089687,0.5714204265716397,0.20703939309078773,0.6756791230727687,0.5548730818752597,-1.8138748721837972,2.0178441335824635,0.09768289217235453,-0.2474869751530231,-0.4387140092158466,-2.769822161928076,0.07419486924473224,-0.5509992952079553,1,0.125,0
1.842,0.5251788852573527,0.7798086863056982,0.8900510398473451,1.126036335200803,0.7775932646117097,0.3716849797515133,0.9907533570832142,0.5665664422294195,-0.7815204241551298,0.5797233401492995,0.8688573876365444,1.1887411743865381,0.30625538781453443,-1.7610563651145503,1.1481992976923985,-0.4997347452352594,2,0.25,0
1.9020000000000001,0.7207617097448304,0.4640293466864722,0.8127492108490593,1.2349443086842664,1.0222504270071329,0.4803355715332618,1.100324647484653,0.4795960632247048,0.4727009639457453,-0.5952295373381641,0.518474374075307,1.6641519586799232,1.1996996522628653,-1.042559268285599,1.6931244674414183,-0.9733446083008496,3,0.375,0
1.962,0.7096504847536642,0.5988392980420139,0.6725320725551411,1.0023105650370192,1.133794507220685,0.6685393868801117,0.7426225884536571,0.37963755237567004,0.3656416272357193,-0.10858009946582996,-0.03512831554241893,0.7436380932932947,1.6428683420213517,-0.04524103351735914,0.2118391122259633,-1.3848917053669145,1,0.125,0
2.0220000000000002,0.48759302249069236,0.7471073485419133,0.6241974704760677,0.8646835384819341,0.948647820935435,0.7906539442703493,0.41783060497107216,0.4727356063774474,-1.0564395976832996,0.6156678864550552,-0.2533484445348082,0.2824748568961829,0.8795743371772337,0.740553947677382,-0.8431792671368648,-0.9605612203549141,1,0.125,0
2.082,0.4326752422124566,0.9281248091292332,0.619041238848491,0.944188402645811,0.6201229481978082,0.6116191233991103,0.34688380596312707,0.5326165270802143,-1.3215469270073814,1.2865173177555878,-0.2725691704092385,0.5804413318042425,-0.2961614232610237,-0.5338641529610869,-1.101006218642224,-0.6527309777565936,1,0.125,0
2.1420000000000003,0.5585563349491754,1.0867618958262288,0.6739989137083192,0.8680926367416341,0.6267573685181722,0.3310588302049509,0.41485179278795375,0.5135906659997382,-0.5226328007636879,1.9819876182560263,-0.029146521188997673,0.271768115506063,-0.27485376654152166,-1.935409897007193,-0.8929654834007982,-0.7425022860016118,1,0.125,0
2.202,0.6909084083943856,0.8889959811420178,0.6868835517394323,0.7521412981280764,0.8292801504841923,0.3252928364372797,0.7331524895947397,0.4423532900054078,0.3167843975778712,1.031700741284089,0.019191794446045702,-0.1339112537497557,0.5053276098820226,-1.9404985681882405,0.22076649178719499,-1.0964382575219669,1,0.125,0
2.262,0.779502666375122,0.4716651405961414,0.5984484449669363,0.6297685134451139,0.798394867074919,0.43001526902960074,0.9578973324506573,0.38879986558698487,0.8916382426247754,-0.7043006445815027,-0.3977243898119455,-0.6674740010963017,0.3850269855814325,-1.3794959034566185,1.208432897572979,-1.3343969184997635,1,0.125,0
2.322,0.6318961611994107,0.20992433424357484,0.499601833912852,0.47163082896333763,0.5379046600099879,0.7267195661425642,0.7981443505803266,0.4494924313572124,-0.32258996974610343,-1.6237485722948557,-0.7855076727810774,-1.1907717700754934,-0.6518382302916489,0.20285224213279665,0.4392907295778141,-1.0607377220935252,0,0.0,0
2.3819999999999997,0.32019180627692306,0.2743963220845872,0.4465755034673959,0.5354410636550794,0.29613708185346455,0.8620525453790713,0.40401010742005006,0.5545078835099051,-2.1656758597507197,-1.4056119697300817,-1.0365501224655824,-0.9581810859644656,-1.4498583546086945,1.1598349561113144,-1.0254740682848078,-0.5647388641918594,1,0.125,0
2.442,0.44838277180301134,0.3815212477581599,0.5112739895487677,0.7306604224883032,0.36777186831296804,0.730635667531519,0.3579097623334904,0.683529197179021,-1.5069758124618182,-0.9029192437448538,-0.8212105287799304,-0.2648893196575293,-1.2233078351320585,0.3724826509813232,-1.159256679126379,0.04046281434464082,0,0.0,0
2.502,0.6911608179243063,0.31225594900861703,0.7229434636990443,0.8066721949126764,0.5047797105175501,0.5729524910222643,0.6303972108624548,0.6973525617715146,0.25775842633032153,-1.2746903815366086,0.12960741688763613,0.0534399714289663,-0.6611431000769324,-0.5097392258623669,-0.1287540740664524,0.11000424485981956,0,0.0,0
2.5620000000000003,0.6597403381533316,0.1967711982407343,0.7542875282426492,0.6312452760288277,0.5722134843706149,0.6347074757082384,0.7205073914838057,0.5881903441502538,0.05333953840696317,-1.665956542718826,0.3067345587594052,-0.6659209284559513,-0.4058466344146185,-0.20272840325511363,0.3203328482260152,-0.40463657894948274,0,0.0,0
2.622,0.5523322372025229,0.2860839742288618,0.6195213648375372,0.40011859227424507,0.670177461218194,0.7591953465431371,0.6709541665013612,0.5007934221922652,-0.5558356416937127,-1.307909136120869,-0.2848886925246675,-1.4890502194166035,-0.05893893021379681,0.5709789097453699,0.13801660268036467,-0.8159049626777389,0,0.0,0
2.682,0.6402505242475399,0.3448723604172389,0.5923441982826493,0.3323231900751264,0.6345854569383379,0.7198972015810897,0.6037840910272188,0.38303763636241284,0.00023623628990914378,-1.027322848974202,-0.39342981904657304,-1.7107121400735081,-0.23419429151600965,0.3424266939790333,-0.1380163723994498,-1.4212698426467687,0,0.0,0
2.742,0.6561252297774159,0.40594634949219494,0.6044637134007717,0.3546534130907465,0.37701245057012855,0.6045293287804017,0.4714538481085403,0.35409267171862036,0.1168802936813601,-0.7911312418043898,-0.3513154344497916,-1.6242733615710752,-1.3662779819565365,-0.3241327311571827,-0.6397480084772329,-1.5569797081907504,0,0.0,0
2.802,0.5504502393741114,0.44351247887527445,0.4484000624603088,0.4088257242079366,0.118586055316188,0.464203421168852,0.3748717318068387,0.5976697513424778,-0.5830973437608483,-0.6228737433749508,-1.1333076986748405,-1.4305223418166741,-2.1283392555090055,-1.2047544016173022,-0.9997195615094463,-0.4808153825494281,0,0.0,0
2.862,0.39425024784775764,0.3920247265353832,0.3101355310083644,0.5606069460550457,0.30932672629133706,0.38368841379251206,0.3729588143618388,0.7041911342384457,-1.6095658769502015,-0.8420340305288775,-1.6304540226498991,-0.8962400198952638,-1.5877392863177748,-1.6371535972416529,-1.0098520625715814,0.14875762188116073,0,0.0,0
2.9219999999999997,0.24809296808593426,0.361430129920518,0.38506178204686686,0.7625389603072529,0.5498046905526771,0.5475239747505304,0.49470033719968537,0.6170079771892489,-2.5026040072488893,-0.9582678089029936,-1.3042104504498937,-0.1294938586073692,-0.5536119578576645,-0.7464109081189579,-0.5647942513111023,-0.2674711786645258,0,0.0,0
2.982,0.2927119677930212,0.45139070039680945,0.39811969148868714,0.774027675388434,0.6397214046988716,0.606700405736021,0.5709128263786483,0.560328952882681,-2.308479584909781,-0.6194482249592399,-1.2315188239825046,-0.07425258926245205,-0.15529509213319798,-0.3124835892630227,-0.24565834051337543,-0.5181894046588208,0,0.0,0
3.042,0.5607301260455579,0.5670434977982849,0.4123721382514583,0.5769139353273697,0.5619862743729147,0.560113116683927,0.708776506740709,0.5785884335655324,-0.6903476255920101,-0.13082245208764268,-1.173794868274199,-0.8388261609317067,-0.46079684290675105,-0.5809368784021774,0.23592630947609225,-0.4336374412032937,0,0.0,0
3.1020000000000003,0.7002511562696992,0.5520542620302807,0.37479817075072225,0.416963478055028,0.41130806467683995,0.6490753877847495,0.728629981602774,0.6583899464452803,0.39150069230348644,-0.19646072647631266,-1.3880384237306398,-1.3996055382605015,-1.024485617491577,-0.08524094989863513,0.30839255921389547,-0.07179197098377192,0,0.0,0
3.162,0.632195719885396,0.3850601690133768,0.2921401127307109,0.32540100019454377,0.3677418998762499,0.6635750421318536,0.5024526584614919,0.8061049860121186,-0.05783276471687208,-0.9598804852315433,-1.7298882148915427,-1.7536533187191337,-1.1577544255447185,0.017238361939010877,-0.6014257329624372,0.6178417193052518,0,0.0,0
3.222,0.5358339757795714,0.19596851388684727,0.6298263966463578,0.35800012928105046,0.35924012450899334,0.5769657783470505,0.3183967599466132,0.8234978660975691,-0.6400252910756187,-1.7054112698992687,-0.5410744058065874,-1.67875674022398,-1.2020885441533846,-0.47235857376653606,-1.215234378563228,0.7003823269205919,0,0.0,0
3.282,0.5136497527420034,0.27315830650778167,1.1171542027490569,0.6629947033974999,0.26972509170381775,0.5039519712929661,0.2810099353496614,0.6599429870966373,-0.7748388416043192,-1.4888931406578763,1.7176760024246605,-0.6170969334380225,-1.5197185007065028,-0.9179597977802468,-1.3500215283176225,-0.09765132213902165,1,0.125,0
3.3419999999999996,0.5320997235040298,0.6508949204714108,1.3832235870236869,0.8217134767727892,0.28007685442726127,0.3936989515760019,0.33202527276537475,0.500529725345406,-0.6638521804477976,-0.017171856521623157,3.035491651995823,0.12281127705181916,-1.479137065987618,-1.575912478607701,-1.175517253647087,-0.8198491474586808,1,0.125,0
3.402,0.5805615132400881,0.872922683144774,1.2838540003759609,0.8159593878108414,0.41103336546251795,0.505788508044506,0.3740875564440876,0.43549404567094013,-0.36020674084805243,1.1160175724269534,2.5705955846721333,0.10179319136776936,-1.0281539805913387,-1.0436090022761864,-1.0037833452326217,-1.1194196165023498,2,0.25,0
3.4619999999999997,0.6399343221941594,0.7976284594073723,0.9432196667083501,0.9083225973455875,0.5391606238076084,0.6464144925685725,0.32687469004504216,0.4648296386536597,0.01760545404382856,0.7902612086897768,1.0034297742078246,0.4389065684251629,-0.5360134830730376,-0.08741331227788923,-1.1923399269766364,-0.9826255862771857,1,0.125,0
3.5220000000000002,0.6635629950290411,0.5881950790193435,0.5801985986701956,1.0025081158713016,0.6316060377029039,0.6124181145344588,0.5205758984571531,0.41531619323721786,0.16585949169222428,-0.06917887904037265,-0.5602208796662554,0.8133483333106789,-0.2010996838067668,-0.27526263003510065,-0.6404463459961277,-1.2812415863969209,0,0.0,0
3.582,0.5858739615676056,0.5366453961898933,0.5220140302308276,1.0558581981802742,0.8630935922988017,0.636064948340778,0.9618430619311333,0.3294455875571313,-0.3568799405147818,-0.2684179044737118,-0.749207980977614,1.0114156579774194,0.5823971041669608,-0.15183350898707051,1.0699566009823887,-1.6654265190632973,1,0.125,0
3.6420000000000003,0.4838045338862907,0.8271654614726682,0.7204578667430935,0.9755163931653639,0.992699105166239,0.7091951764617135,1.0529616405676974,0.5846572377625392,-0.9670271768458698,0.8075112043411953,0.13535610608881657,0.6556770430601376,1.1249964908009682,0.2837493261885418,1.5402905677001286,-0.6170640786202403,3,0.375,0
3.702,0.5112187887885473,1.0705027217643743,0.7239184278364976,0.6722115386336887,0.7882745025799646,0.6024348135775834,0.7273649353093405,0.9203112543301064,-0.8185357478414627,1.9228908053363443,0.15630090638531205,-0.5716676455657522,0.2545340111057582,-0.4149557769135645,0.19417833599720702,1.0932737742190726,2,0.25,0
3.762,0.647411544080549,0.9587137233150951,0.604730394735503,0.5901039833131558,0.48862198413342073,0.5714636409202717,0.4483569399945236,1.1205091943302852,0.01696860084057017,1.4053496266602414,-0.3378172398719191,-0.8165467011122883,-0.7624953556808327,-0.6000468875113455,-0.7300320645989954,2.117563704120068,2,0.25,0
3.822,0.7253700544196924,0.779912692696626,0.6301122379929122,0.768193519347428,0.5864514610811471,0.8876827805036362,0.5147725429030805,0.9758311384884277,0.5615205887629275,0.7474070454924089,-0.2283635937000705,-0.09658427888356369,-0.4407560173930172,1.160935773330258,-0.49415007491257845,1.2591166158297311,2,0.25,0
3.8819999999999997,0.7622793864206638,0.8086113428542293,0.7658573788754651,0.7961771615420968,0.7595439711961975,1.1962431189614446,0.7196587360048305,0.5989851833641053,0.782539082789602,0.8732951595972916,0.3470008833765749,0.03254172028441766,0.26985606787597527,3.0667349191708486,0.2755767757963936,-0.5009485130329354,2,0.25,0
3.942,1.19055051111815,1.0259183053834002,0.8534170637423423,0.9197391453090746,0.8701855385951156,1.9676138180604468,1.3623707363812414,1.1349945174821443,3.0453025857267,1.6559708539399027,0.7494239716459776,0.43884109709568236,0.6491670648484552,6.9675157488575685,2.3591240612205278,1.2682968246943769,5,0.625,1
4.002000000000001,2.2446566220393884,1.5882134765955882,0.9909665507691979,1.4095296239213533,1.4204102257481965,3.693827019041893,2.9232436944823585,2.5560170317414146,9.333645370207861,3.8664790632779646,1.3102170056275535,2.1705836574729234,2.4023562668265863,16.458230165584347,7.864371152666472,7.949585385570447,8,1.0,1
4.061999999999999,3.017313777384405,2.0579705446762806,1.1724462691221094,1.7182241992743794,1.977568346471654,4.949172617297234,4.428525152833376,3.0657746056396267,14.930567964936472,5.962585566146618,2.1165613900438816,3.4856360074778965,4.656089628994694,24.760516866212157,14.216250058809644,11.201501773842118,8,1.0,1
4.122,3.0922692431146297,2.4616448351443347,2.238407276132842,1.801594222051269,2.564375718759789,5.322827010124565,5.061896617229156,2.4049442811141675,15.479517038337718,7.578431062021038,5.791262410502129,3.781686518602941,6.718761135880446,27.10491409212699,16.896837123063246,7.890416740954479,8,1.0,1
4.182,2.5838090629916,2.733190334472908,4.067718593615943,2.8517685799305075,3.4113714398843635,5.335318563599892,4.696862592614178,1.895519909394057,11.955734000998243,8.704969073738921,13.86793234775355,7.0871203642418665,9.778436042651093,27.19039386756923,15.416521765940194,5.77547476006556,8,1.0,1
4.242,1.6774606715851532,2.2518030755150797,4.856205242779275,4.735186865727474,4.335280447662677,5.417657239183202,4.072718264359603,2.0428653271385553,5.813388398798902,6.353344373063064,18.06719309539457,14.250351067242685,13.211371682536523,27.682933785369546,13.092325818593835,6.463378752553822,8,1.0,1
4.302,0.8964449636764678,1.1902049165939872,3.9518120875713376,4.831922786229956,4.179854394384463,4.8535117784980475,3.412993346283827,1.822032538300432,1.5001757562764269,1.9106397122257845,13.625111810275044,14.683348973764204,12.403626123651835,23.874715939046734,10.378471320196583,5.215697196889138,8,1.0,1
4.362,0.8534552624866923,0.5106253574835186,2.4335383004069184,2.952752413305713,2.6400939169289592,3.1078685117521996,2.2403782170118154,1.1452798261479815,1.312742368996515,-0.4732660568342055,7.195411383849254,7.1331708920747845,6.086341038994733,12.563195797629144,5.529660787076035,1.9544635618354986,7,0.875,1
4.422000000000001,0.9900682411863031,0.4903904682680253,1.53871970287568,1.4609766304022036,1.262323138384429,1.518727841248747,1.359230757628862,0.9171295406686072,2.2242112650270776,-0.4854326838778737,3.586966589324501,2.4209297820246802,2.0396222284405705,4.7519935370739335,2.717010842318524,1.0699137188041659,7,0.875,1
4.481999999999999,1.0784745572589862,0.7595894601945302,1.127520902014815,1.129158137550287,1.141187703823703,1.3587893546167888,1.7067348670019464,1.4006228183396652,2.7550364368160682,0.5508211881122076,1.8985829127048675,1.272368609087357,1.664975858354553,4.058333321922176,3.932171974349219,3.212146164804586,7,0.875,1
4.542,1.7794292628093942,1.806443332445613,1.3981994991751254,1.1860729549827265,1.437637769750617,1.5889798448429415,2.332348226836757,2.19414422765061,6.490794458356876,4.1369293047355375,2.8495566757454878,1.4536840515417884,2.5849038948851,5.330069022289262,6.368377186232235,6.90199442001028,8,1.0,1
4.602,2.5720767670791758,2.6244209017318303,1.9020056145557953,1.3340194386291437,1.9225550887709044,2.0260087091546124,3.168517270956545,2.7510432679879164,11.939204081566544,8.126283795325456,5.192190399984768,2.039526031153305,4.430947954633225,7.820580185345361,9.445127888571681,9.763386964956375,8,1.0,1
4.662,2.3683299776586644,2.3102401074215617,1.8285304056678346,1.3124978596310681,2.3266220963217235,3.19754425209194,4.758492250730049,2.6422448614175993,10.399212961019943,6.627828330923452,4.8849004098596245,1.9610011803939411,5.897306989127553,13.847251052433508,15.213149145712075,9.24871755185241,8,1.0,1
4.7219999999999995,1.5040458464939863,1.508996831307763,1.7192825914975123,1.675990180564889,3.459779500136715,5.625498882729775,5.689748635860719,2.197099413101584,5.249266732115368,3.6992690574913603,4.458309966553839,3.1637205616199657,9.652692987982762,27.301299697693906,19.203930787570602,7.139523002538898,8,1.0,1
4.782,1.4256694671363852,1.5862109964628477,1.9331501752808091,2.5347352735943,5.130919044971429,8.392608313539654,5.260542813590872,1.8226208798548689,4.857783848050463,4.008244541568293,5.420962489526956,6.3421138697599035,15.874181877460538,44.1850004286545,17.506979495848057,5.320177585190135,8,1.0,1
4.8420000000000005,1.9054239289940902,1.9897853481741392,1.8536634066029758,2.9502050335589174,5.861187738264185,9.254147598685119,5.55056365529364,2.727272640612438,7.827321180932007,5.655863775868828,5.061508768194873,8.092589254460458,18.790580939403362,49.719293202011194,18.524622971197385,8.690771098746023,8,1.0,1
4.902,2.344352889885781,2.0880388931290774,1.438262449726806,2.5735856014190284,4.916366635474948,7.625837084508118,7.455461366305895,4.7727161453509135,10.7229812196237,6.101666944740068,3.106934504189607,6.587371341153131,14.964117214318165,39.61542974591703,25.644808025484807,18.517778655484257,8,1.0,1
4.962,2.820430434636175,2.0100530202419153,1.1886355088026328,2.090212461475551,3.303014429608395,5.983768691799062,8.44774185198464,5.588677900209176,13.65784766529679,5.761170053091615,2.0569154689253906,4.8731302313592435,9.29074769487759,30.752581626946455,29.78080242919425,23.179411761813597,8,1.0,1
5.022,3.69220923334532,3.566311735907348,3.456746134751632,3.4538742223559615,4.746670145244551,10.348651726967708,8.06558132895761,4.966812495924326,18.92480270838767,10.8910504382215,9.42792222288604,8.916661992953944,13.181082909585724,51.072511354912784,28.32370654320481,20.18104437196326,8,1.0,1
5.082,4.912873784856368,5.89797481170098,6.038443811464783,5.162068378766278,7.646535497893786,14.829578856684954,6.5176810473432925,4.2398863147576655,26.615592557852448,20.96549607567783,22.142967587177683,15.964925509649527,24.496742326425704,80.94006331520688,21.653040665048724,16.816432786824326,8,1.0,1
5.1419999999999995,5.058022371333315,5.760501018899087,5.514017317125386,4.535200221003381,7.2881177317479695,13.154086195918968,4.360005037235768,3.5358154596138234,27.650519259395054,20.238139427233037,18.885979649082802,12.881626847997033,23.00190862664462,69.61535187668231,13.641770423924717,13.343675555604852,8,1.0,1
5.202,3.752230916365721,3.233329311683092,2.4424075753758436,2.4306929319164494,4.726705995445386,9.755829840843129,6.048660883063094,2.6114444554786265,18.810227882640145,9.41147025471881,6.38905068805427,5.863183659493636,14.39132718536723,52.306595862390814,18.854077190576348,8.93806414580165,8,1.0,1
5.2620000000000005,2.7257220231551176,2.1613318054046693,1.987371657057722,2.9319821209499035,5.899382387840219,13.275490703599512,9.109821396669515,2.9115057030266276,12.984502676725347,5.967799384810213,5.2042499620945035,7.576179217742236,18.145665668810196,71.27301439159099,31.732063560966598,9.986266248069533,8,1.0,1
5.322,4.300466228333983,4.8005954789951595,3.9689145545723585,4.584707092048123,8.71959972391865,15.683910320305547,10.22188265857228,5.449217111590758,21.32937120592362,15.212465202382866,13.022741932311881,13.79196940719194,28.679237174803905,87.32909582208981,36.55723743011735,20.99298864653687,8,1.0,1
5.382,6.01349401503852,7.541566521087294,6.9155768654193865,7.275302868167014,12.870299103798104,18.401354931835197,12.400495893172932,7.695660307351495,33.49837006835856,27.864361286930137,25.874734732398945,23.46890176724001,43.24336853464564,101.87719872291366,44.107980770395024,32.78812782484127,8,1.0,1
5.442,5.389547963902335,7.583132558395937,7.98030978878209,8.225360796322983,14.905606979335845,21.509026982060604,16.11932474003012,7.354705645697338,28.600805107783668,28.101471025903738,31.40088913250575,27.628988992620393,51.650476686868025,120.94980702859704,58.63118806834691,31.03294797667141,8,1.0,1
5.502000000000001,3.254886988478393,5.378079941189556,6.446970505974586,6.524345960125828,13.597494201769605,20.65350927594835,17.337874121169204,6.5552207385383054,15.540603955369313,18.89206014461351,24.336140520962513,20.908136533770335,46.83739755812537,115.93036688027723,63.73180628414887,27.53041207043358,8,1.0,1
5.561999999999999,3.23011600193914,4.791459839208363,5.659816352126417,6.191195030635611,12.753815175010262,17.139898365297288,16.265462504642453,7.354597591100039,15.59432884143567,16.99114647681042,21.46042718032929,19.962240049269855,44.0000950780763,94.93971499521753,59.58797349025199,31.429093183892757,8,1.0,1
5.622,5.277891763810626,5.909595510245883,7.0318484759890785,8.35470158767919,14.717885542445806,14.076350297265078,13.82072098269419,7.829739014270664,28.128124859271868,21.66143744872269,27.311022997317664,28.048719501316977,50.7749536893409,77.58233427223335,49.612590350905144,33.80286790664197,8,1.0,1
5.682,5.675806020862148,5.490683883520971,6.999378505300937,8.386686960412032,14.76295113126777,12.506194924248794,9.455564852157755,7.396328167913441,30.95126380387367,19.424591724706648,26.88979908669359,27.906858059766332,50.31778833453697,68.35899538815634,31.60443558107018,31.34107502811467,8,1.0,1
5.742,3.5724256214531027,3.2687459258439384,4.534366645960484,5.318210123959455,9.602491004523863,8.987470695501742,4.705251695426925,5.024562595289543,14.4381632920388,9.053569751538001,13.952164132078117,14.321605917080875,26.57252751716686,42.3187966289263,12.876175353784303,17.239569615027747,8,1.0,1
5.802,0.9269739880338659,1.1146733703043707,1.4962999553658818,2.0953274286038694,2.6818824348515813,3.389292246496642,1.5808460169300764,1.6542356710578416,0.48117190253895864,1.7482442754777239,2.5340221166301955,4.616971892951395,5.303717956482665,13.607368691300417,3.0899342785458734,3.4416026164533924,8,1.0,1
5.862,0.3663698420904623,0.6473128320676979,0.7811020484003541,1.8726122540245442,1.2685003332432414,1.788919170281387,1.0943113247891865,0.7654729359379184,-1.7301378385596295,0.1920420177644034,0.4153980289669941,4.041630675297491,2.0724336640725456,6.525036028447286,1.740804540853591,0.43956399753511216,4,0.5,1
5.922000000000001,0.41080492315494743,0.7560014811591086,0.6945348935645458,1.5872566184144172,1.4775214224114528,1.3078118894524982,1.221149698575497,0.6403524541160187,-1.4265611284828514,0.579246621353781,-0.10641613275500239,2.7760512229745977,2.876469503372373,3.17286935271375,2.221809196274941,-0.20009028055272413,4,0.5,1
5.981999999999999,0.5055074060380754,0.8985798861538857,0.3955617585537414,1.0375653074921514,1.2275627926899406,0.7208479685325604,1.105052041940859,0.6596201319715183,-0.8887647214827575,1.2364431635083626,-1.3498982707918386,0.9068793888554226,1.7942492181923493,0.2141692080269637,1.7097319230927701,-0.13633320422951598,4,0.5,1
6.042,0.6443546341931328,0.9282241071114596,0.44919381866013897,0.9438713712655813,0.9409691033385416,1.1205002774009192,0.7619766742891674,0.9226182387786506,0.025940490447827133,1.3603593825120022,-1.117257559663529,0.5931356798456713,0.8831207794999134,2.200136187312394,0.41554630496666833,1.1238307924362791,4,0.5,1
6.102,0.6861075242815436,0.983204829262181,0.5817863045552315,0.9853951809239592,1.248999981366524,1.4623614336591606,0.6727094924715346,0.9493360684016107,0.3088635859028714,1.5826101252948854,-0.441801046451683,0.7468731695171225,1.971092176177178,4.599572406447833,0.12077677690921935,1.2717427223726865,4,0.5,1
6.162,0.7178386994041059,0.8059375332574897,0.5054969861392988,0.9545018285091718,1.404969685877192,1.193742949541862,0.9209981139028214,0.6747290777128555,0.500657602040421,0.6554136795060281,-0.8124880811465583,0.615407925534542,2.6342696953493236,2.749360340295283,1.0201191764095638,-0.14877957778252768,2,0.25,0
6.2219999999999995,0.6819869643248101,0.4008767152194832,0.6015575660809125,0.7112003452703239,1.3111252928935444,0.6770202045253295,0.9160432075335646,0.3821861963571944,0.2532444749602873,-1.0051777992571032,-0.5022915162706633,-0.45375140540656717,2.279143263083411,-0.000296424111288542,0.9726045827407687,-1.4172356988118064,1,0.125,0
6.282,0.5994463417980077,0.3130611446313545,0.7928657786013964,0.33811380337638935,1.0278466059732003,0.5800444138695472,0.5783468878301384,0.2769354039665065,-0.23715259004273795,-1.2376921845448494,0.4262951568186441,-2.014295497692876,1.1178080812685451,-0.4662748300487675,-0.3508414622152531,-1.8620356340908817,1,0.125,0
6.3420000000000005,0.6144388803961888,0.4872627011785552,0.7042670464972834,0.35185937187782695,1.0504250515730265,0.684611479522959,0.42168872894788206,0.3213177918939968,-0.142396540257132,-0.48877606185747063,0.012432017645579533,-2.1033156241343556,1.089089751579591,0.13904167406041887,-0.8277046062280834,-1.6907479213507681,1,0.125,0
6.402,0.6547339644700242,0.8146221643611629,1.0345352294342853,1.576694723770166,2.10775164895914,0.9017227270350038,0.5709659222730247,0.6736595566638126,0.08937778402261165,0.7356872250882079,1.094507080187693,1.7278935143053218,4.624117213529255,1.3209094605229137,-0.28893361184709104,-0.28019955706572075,5,0.625,1
6.462,0.8696654199795392,1.2492852601529312,1.7093876855356551,2.7418758158093484,2.7493930744682427,1.1173641125205394,0.7884926792216462,1.1083287840582658,1.341359190172484,2.562499496688231,4.244134163423019,7.010831208656472,7.492926085821728,2.6278823247379846,0.5466502504005405,1.924474013859844,7,0.875,1
6.522,0.9757577704345701,1.668476906507982,2.6854884671943324,3.7569672928470994,3.1854551908952997,1.1021310014147303,0.8668472283186573,1.2801339427542968,2.130834983249186,4.33329726265559,8.291139230147758,10.946902114661931,8.92706950446199,2.559989169809761,0.8668621212177862,2.8780640849302697,7,0.875,1
6.582,0.9154325276209047,2.0246024832681946,3.7154024581289367,5.2052542656680965,4.50297705895769,0.9711907595582154,0.6673081017645709,1.1523499375417312,1.7605457731167944,5.819779884692793,12.943671462158123,16.22432537999995,13.471078552150539,1.8065531260352363,-0.016914788816402553,2.2482112257052598,7,0.875,1
6.6419999999999995,0.9055345092414404,2.002542277216993,3.6142436671201446,5.066668550839711,4.251743533511778,0.7436939262067918,0.488388680074936,1.1439943047851435,1.6991280930580341,5.729603006958189,12.486473498158276,15.486469784679644,12.05492164884484,0.25653514029660157,-0.590839970660432,2.2142593887061124,6,0.75,1
6.702,0.8451214178136087,1.58537027094159,2.6632711109924685,3.2872493045450453,2.150247662365293,0.5163749325716903,0.6009425380606298,1.086111230144415,1.2908972196761996,3.951760169182228,8.46532278413975,8.978451474942789,4.429615144921435,-0.8717865887589044,-0.15501701769623813,1.827469814439268,6,0.75,1
6.7620000000000005,0.6805136144448676,1.1083635848132027,2.2867463379087276,2.8011621296621763,1.3372893398117462,0.7222443353271227,0.5879996943061462,0.6832471978900992,0.209555245915769,1.9688793786871297,6.963365296633732,7.52550286770795,2.2956284660033375,0.24855186052914488,-0.19904319409288154,-0.2845542255411531,4,0.5,1
6.822,0.620982352718506,0.9231677854677122,2.502909869332009,3.6360543104085075,2.163073219090446,0.8988165429485112,0.608896664184849,0.3779731905479033,-0.12705562308241933,1.3227409404811492,7.863521334625333,10.508650140017727,5.057475939371918,1.3918019438179234,-0.14183237071043134,-1.3929038506533402,5,0.625,1
6.882,0.640149323116563,0.9296520364315048,2.4381887122772032,3.9470428189939097,2.5836230773016258,0.8306256056189171,0.8554795794237703,0.5577297140983215,-0.025284326194120754,1.3249802002897846,7.457645523006026,11.732715315802501,6.833967746954323,0.9544993667507543,0.779209808580312,-0.6409137052536782,5,0.625,1
6.942,0.5066944781662198,0.6911272660580171,1.6485747893092455,2.850463440749971,1.9695251413583883,0.6584494485280465,0.8325446046928136,0.8562708559990495,-0.9297741801052893,0.25174399942528886,3.5802095495148762,6.708168214058722,4.178254956495965,-0.015615753142615341,0.647289078105618,0.7796186946042027,4,0.5,1
7.002000000000001,0.43198705601092857,0.5250297183575223,0.8585849797107414,1.3139268235111545,1.1201962112081194,0.5481395142782538,0.5468598972728212,0.9528613763705311,-1.309020180284202,-0.2998803148386629,0.7259841177757145,1.7426109951253823,1.5272390795667363,-0.6546310663675171,-0.4140608338347755,1.3104415064008945,3,0.375,0
7.061999999999999,0.393201045038892,0.5750402881940898,0.8717339296943812,1.2195223043046977,1.1205142753598827,0.42537169498076777,0.6449904640597935,0.8108386902019531,-1.6249349436666272,-0.08330187515351098,0.7801999770029496,1.5641339316454006,1.5752843064099344,-1.3940141001273696,-0.08344291423407507,0.6183943160366462,2,0.25,0
7.122,0.295978952505986,0.5943348615675155,1.7442510521150543,2.0785276113359643,1.265925780147001,0.3828191737601766,0.8303479595107953,0.8570101732768513,-2.179959012332323,-0.007504318277197937,3.906943869564659,4.389742816360932,2.1166372397167983,-1.636999114057639,0.7176943074360508,0.8256742524031694,4,0.5,1
7.182,0.332282692892227,0.6963526493596549,2.773192965521321,3.457858692241637,1.322327381707915,0.5343105297997014,0.6868792718428619,0.8700363110051927,-1.9479510992677227,0.39240554302443326,8.794692761348973,9.583765130280161,2.3154387935906877,-0.8070499421002163,0.05832296028746733,0.8792526040565898,4,0.5,1
7.242,0.2970440747084247,0.7006884622145584,2.808989223278651,3.734891846027283,1.097770088896885,0.5298968782046042,0.43969251381433755,0.6426906067402183,-2.202815031194325,0.4147302248952269,8.9886965502167,10.837164243779073,1.3947109766251333,-0.8460955692726201,-0.7630743836027881,-0.1961881543302794,3,0.375,0
7.302,0.27138511908480645,0.7070525512295404,1.7764939870622385,2.5008289653376736,0.9517498898532452,0.3858675671969668,0.46676457569128466,0.573935530632367,-2.337950639661866,0.42250928136090793,3.8367161572153314,5.5259678477429475,0.9225636953350711,-1.6447676531574633,-0.6534573785268141,-0.4689167600490847,3,0.375,0
7.362,0.33013493986708375,0.935532622565883,0.652887988017549,1.2615207110095037,1.3425676362487156,0.7002467489939125,0.46925890769275663,0.6775810067033844,-1.9406950486539973,1.3364971142442676,-0.4711515188107038,1.738407267569217,2.291635054874059,-0.16594288103875196,-0.6385928454089006,0.017303306844558528,3,0.375,0
7.422000000000001,0.46566502016484385,1.0857257068931194,0.31089112268717933,1.1081933263107686,1.688502238737409,1.1015394407434065,0.5391699415636967,0.6846474347671988,-1.195070563608098,2.0119492802506174,-1.6383231493589625,1.192931348820149,3.649838083806548,2.4506165570988325,-0.4082477937460489,0.059855839328311004,4,0.5,1
7.481999999999999,0.7672984445889658,1.1182120014184536,0.5257641634628556,0.8773221706477916,1.7860957557132824,1.1209079556350694,0.7452511996426998,0.5941656106043015,0.636646089213096,2.143799831642506,-0.8808512570623335,0.2662788942514916,4.003905659008493,2.6362839518691383,0.3836714470470766,-0.3709069763473715,3,0.375,0
7.542,0.9732747079637891,1.2049793000027322,0.9106893851121571,0.6869535699804885,1.495339044766406,1.0142988997820108,0.7867717303931594,0.4592770185300696,2.1015928853344232,2.489551853763473,0.8619507314640596,-0.40955185177874914,2.823688725258146,2.0677439775632327,0.5686322073344968,-1.06686863932411,5,0.625,1
7.602,0.8415345895365709,1.1472272237082624,1.4751386645581979,1.4033577831213087,1.3297356392034987,1.0727024886472418,0.8820718218088843,0.41258846162775525,1.0928583792030666,2.227257769220293,3.187781919773235,1.6405931026994607,2.2906681138419045,2.4142211580393136,0.8616275384671201,-1.2829476124675763,6,0.75,1
7.662,0.5124224298169862,1.2252618470834689,3.067652049130816,3.878396095035027,2.108965085466259,1.4022324300115088,1.3332596386521312,0.6925025465103091,-0.9228640513538764,2.472016638854226,9.265252655271517,9.845628172689901,4.857972509222341,4.107388119372791,2.5108460180933827,-0.062380163121005604,6,0.75,1
7.7219999999999995,0.4156406348614696,1.5610618584547233,4.342229555793751,5.9114400936241704,3.2298572498574094,1.7219328985324192,1.4769507582808992,0.797037254293222,-1.4056756313858505,3.8947120932604835,15.661110477788975,18.859991489533517,9.014890520323965,6.11107542063129,3.1752626930565135,0.5735817400731774,6,0.75,1
7.782,0.47645764941452895,1.5998443990600242,4.454919115919392,6.479771423884855,4.376293076913644,1.5139922646547683,1.1394987211135843,0.7209568499302982,-1.0129822076725632,4.099963004650417,16.33500050078879,21.401209867597675,13.30312402055675,4.7630159539547545,1.7931775432813535,0.2271713123967649,6,0.75,1
7.8420000000000005,0.45885516541848315,1.2237535972755185,3.5824293265875427,5.884898069050107,4.239950225226385,0.9801217988616294,0.7478906336555626,0.858735806092878,-1.1358106036438091,2.3447155381602576,12.18063985684192,19.038039592990316,12.576598034269644,1.6668730762575912,0.37153673189243513,0.8221217186000408,6,0.75,1
7.902,0.4354085902681304,0.6743598752357722,2.1514769675850602,4.261083576698179,2.62506237843971,0.6867901835095811,0.6564122186771811,1.0770577505254382,-1.2906744376720016,0.08609436143854614,5.334655885439869,12.045053169751496,6.106049439788852,0.14834248328775287,0.07161413307738464,1.8915137886184834,4,0.5,1
7.962,0.656314205245623,0.4196605561909001,0.8953150997557241,2.2519214673604036,1.258194151579168,0.646582410919279,0.7335050874655814,0.9980236644874477,-0.07078202804590743,-0.72415916122901,0.5977893287273751,4.927862028746225,1.9885713852869131,-0.07053044511425899,0.3710089540047839,1.439326350909129,3,0.375,0
8.022,0.980001423150672,0.4847392774937742,1.3826996589805718,3.049126836367253,1.7813153503840953,0.7107210391013811,0.7242080716311123,0.6845585441040754,2.057168565000023,-0.47960403989493106,2.190841121336824,7.163636554583927,3.513301281917629,0.2350415210154726,0.3379755702360257,-0.026108101112238713,4,0.5,1
8.082,1.231212525017084,1.0672615146886428,3.1373738006434424,6.866926221759331,3.820618164566493,1.299666918072441,0.6841661732561606,0.7748531842541811,3.7042466883942002,1.415286563663355,9.557961126248786,20.723193149573458,10.33054165099542,3.1545250555908453,0.1897050521785054,0.3361353752194727,6,0.75,1
8.142,1.667963787505793,2.4545886847274594,4.7748488343670505,9.894206468893099,6.081518376735562,2.1261814899919638,0.8341727042933651,1.237296686425646,6.288504718887155,6.734786524557879,17.447152218938264,33.88055115627706,19.191705412972837,8.208930360144254,0.6996754951827802,2.5036879017384965,7,0.875,1
8.202,1.9306857433319917,4.136516675971992,5.877753295003385,10.190683538927507,7.269261984186387,2.4967819309046826,1.2887576182004885,1.6790519536217292,8.136581207634093,13.991796543059776,22.450146552939902,35.26430166025119,23.99358615734808,10.675512080708998,2.3291502672569053,4.690851709066056,8,1.0,1
8.262,1.9167465889441127,5.020108555691939,7.221770102331337,9.093004467241718,7.077667294713207,2.2036520521722305,1.8404607466775482,1.9315087641094852,8.052774074122604,18.1119423863024,28.122094080342677,31.17802050936881,23.22440191194076,8.848442142341925,4.499741871510685,5.955177613973952,8,1.0,1
8.322,1.7782166333292884,4.263964830525327,7.320210183671539,7.510164609096024,5.509490246017128,1.7647722963812726,1.841016635883158,1.8014178406608023,7.059869846778651,14.37866896377068,28.44349429614122,24.713784258212076,16.87397761487087,6.414903387158547,4.478499956225124,5.204760542280254,8,1.0,1
8.382,1.292019737057716,2.3972349905410986,5.165328855288334,4.857887099594605,3.3796073434058127,1.4455998832796273,1.292865132305763,1.2281977356573552,3.642796540105334,6.188908547955905,17.99046275811863,14.066815070958329,9.405539430967996,4.421440137603076,2.339650094754432,2.1554785277815793,8,1.0,1
8.442,0.7794703514227519,1.1730043094669678,2.8936789918999475,2.4931143415994885,2.254185646804483,1.0295043880586703,1.3599947288319854,0.61884252223074,0.8489912947555682,2.1742905590016246,9.267176036218276,5.75326233435878,5.600443729354754,1.9599371841154969,2.526004517262915,-0.3008037294660097,7,0.875,1
8.501999999999999,1.345358111792605,2.272760688105051,4.309473975759742,3.3816030632416214,3.018938753541023,1.2448015994655404,2.0749053639951085,0.6678572988200593,3.604976385707578,5.9037529263552715,14.099875121608425,8.238628499707021,7.742647615628074,2.996585175865419,5.28946482554893,-0.12346041215879074,7,0.875,1
8.562000000000001,2.247415514664673,3.1364438470185747,6.506714269605778,5.417728771705147,5.041518218159362,1.8352490894640183,2.3280665068592055,1.0906542828988859,9.712336670909634,10.255726334338933,24.6663966594237,16.818741088968427,15.24863547291051,6.69243164192675,6.44175096866399,1.7878240423353422,8,1.0,1
8.622,2.5061846702077597,2.8804432285201798,6.092486864907964,5.106687174678315,5.604789853297509,2.0777901848705267,3.672076467213271,1.4897735497957325,11.770077513660917,9.1740495221422,22.660609566166897,15.536620794562223,17.838338218720907,8.25958405241714,10.53748551961119,3.814266530845774,8,1.0,1
8.682,2.466929040060933,2.8440108405571167,4.418604211365659,3.815783311998859,4.281399228931575,2.167955749039366,5.988740868688151,1.9792084659722409,11.53564286573897,9.089400058204708,16.115749399628857,11.244680089465673,12.598820211068917,8.77354649477489,19.747980828314596,6.045823889000793,8,1.0,1
8.742,2.552604640528994,2.969276018152373,4.848925262630988,4.9148479780583,3.1472768661448045,2.478634670750018,6.585636595459405,2.7206945140812704,12.082686200698872,9.68232828495364,17.90500696980218,15.130959682632616,8.895695366882725,10.402316420624222,22.63624532169875,9.453443540499823,8,1.0,1
8.802,2.8476293309420977,3.235386965339758,6.264941490290381,5.744486479747709,3.8293543739757077,4.817339760763687,7.378415195032291,4.298164479973434,13.84075120639868,10.601196767069473,23.914429538526324,18.620170666112774,11.220152652041,21.66954277520637,25.236309412259562,16.373370966592514,8,1.0,1
8.862,2.99114394044031,3.937806825918368,7.33822343140776,5.644853813836708,4.217146965404265,7.128436128034192,9.070341782537481,5.481385388130153,14.781628244331847,13.593055325824912,28.839008575866856,18.261637190135723,12.801642843523515,36.90653617322261,31.95831202546324,22.60485016682495,8,1.0,1
8.922,2.3313986213927644,3.54297805814572,6.706900861403565,5.283664501480329,3.489797543137614,6.512206413078932,7.930618038212931,4.669679520488454,10.105325243928133,11.727730800873891,25.754608960256064,16.887781214091156,10.018673348654211,32.59009250134443,26.62943701030294,17.845174072809108,8,1.0,1
8.982,1.660057182105519,2.586394234554694,5.745459767856349,6.214554082555206,3.7880528264637743,4.091749994410273,4.454451906542697,2.5457784852546155,6.380068168019746,8.065775156863605,21.802520144202713,19.887611732884864,10.885401917341364,19.326192861882237,13.10300205875484,7.785528733652067,8,1.0,1
9.042,1.7254614257493226,2.717058485029719,6.791976634865845,8.061091295381834,5.462081418501077,4.360561124539155,2.5413576021971713,1.389593987858353,6.8359781070121555,8.602300468959161,26.16611274816415,27.025914838598254,17.045848533913038,20.817155049227306,7.127863134584598,3.3605749073315656,8,1.0,1
9.102,1.8512011158712542,3.7300608954256806,7.769651091569986,7.8594416328484815,6.53448675096842,6.397613156470654,3.612962911662009,1.8516775661899696,7.61520339115748,12.536267100761679,30.759214774798824,26.274518718862996,21.311282672383363,32.68259714531737,10.747979024352142,5.183075637570911,8,1.0,1
9.161999999999999,2.248948125112742,4.886733474395626,7.809774807536707,6.240355188071185,7.1078592391619395,7.129469970754655,4.731966927362781,2.8160355908391357,9.99298837719038,17.408260139950404,30.93905252126522,20.37736113124002,23.39860218622935,37.530164594472176,15.545261772704444,9.83290820492221,8,1.0,1
9.222,2.2241764657688425,4.870201423418801,7.277329468131447,5.565456392502777,6.779607602121567,6.000809086860249,5.353193052932337,3.301014100929001,9.784182533654109,17.36100686605376,28.52712555417089,17.93070677926163,21.913915295824676,30.561182230857906,17.934809242271637,12.434910544971743,8,1.0,1
9.282,1.7623930834845036,3.808088114600649,5.722758965991062,4.410297401317126,4.6049333272695945,4.723774798517207,5.701378697783525,3.4329789173229113,7.0072315812093775,12.966282464327648,21.064326425277347,12.759866673765236,12.495013629899297,23.516266416012957,19.272064227238232,13.047006201017027,8,1.0,1
9.342,1.681369060529191,2.8107630523978915,3.411175495646693,2.2747090314090395,2.0243298024174847,4.165051460145972,4.847336202658758,3.4428618625548952,6.5224023874151955,8.859445373903927,10.709022767995585,4.421224121801573,4.61998060803169,20.265031119880696,15.550764445706749,13.01269402742331,8,1.0,1
9.402000000000001,1.3446999062334428,1.9733127109292141,2.1522849284507566,0.9922680867621133,1.7481117906212098,3.0802213368161766,2.9217461166598953,2.5418231997523373,3.9562298043075064,5.5038956558139285,6.290813805253491,0.6678522650562795,3.8741204052500584,12.801661073405503,7.770566062615566,7.434368252643009,7,0.875,1
9.462,0.7375111681313484,1.6420244008021998,2.9373818685965003,1.4226827608970956,2.0801599634773402,1.5068011271801707,1.3796877048787095,0.9257243245004828,0.5001338991611263,4.287527410241259,9.451942838714366,2.121901484469437,5.027091879034865,4.3115345783814645,2.580001944595669,-0.236180322563848,7,0.875,1
9.522,0.5499800137144193,1.4813472248849848,3.290649791287998,1.5567237269495355,2.5674399670480845,1.094552886644599,1.1367541889327,0.22740545873188606,-0.5521855536570509,3.530911701100298,11.241697614309402,2.735663980631275,6.801907350231079,2.4963906739406543,1.880021974956948,-2.364248248034189,6,0.75,1
9.582,0.6796012884586772,1.0015479274806538,2.6443511061489904,1.0085746446962391,2.483827804381914,1.1774289492799892,1.3144062741892772,0.6658242330963808,0.11593101154110569,1.415036173906547,8.26904172960315,0.46561131962426505,6.413625918755969,2.985194145012072,2.5854976693439338,-0.48096772979153907,5,0.625,1
9.642,0.9697639437685798,0.6255263839462153,1.8325438200422617,0.8273794187026944,1.6874265821862289,0.9047180080810021,1.176914817117917,1.1682905781058919,1.976111268463028,0.10342686294331438,4.850904426614173,-0.019848357834161223,3.325363639537796,1.1035943741923242,1.9781173340060005,2.167323955548178,6,0.75,1
9.702,0.9306129195585326,0.9032121455872072,1.8032121100136818,1.576899638464564,0.9950696941265862,0.606237028108319,0.8410564258999317,1.271016168875657,1.6916778467976572,1.045034806065756,4.5410739472929444,2.59037702634115,1.0919020564629172,-0.3686146093761196,0.7296531598727927,2.805302702538256,6,0.75,1
9.762,0.7699501039547804,1.8853495566656069,4.233727962625858,2.7877094336514134,1.1228102488980858,0.9506308435521779,1.0325204748279275,1.2452770850376629,0.7414170657018323,4.693025353401418,13.250020870732824,7.078841925840867,1.444497287268251,1.415928679048431,1.3073232887354393,2.668632038092131,8,1.0,1
9.822,1.1738948896404835,2.6189413990033237,6.210906767234925,3.408800822946587,1.8015728891947205,1.1704134175583154,1.6629806590299034,1.4510666034048223,3.056552682954545,8.158903890874326,23.577254474948585,9.813153129734486,3.8469706494673908,2.9179758060795287,3.7232680329188574,3.6279653292766967,8,1.0,1
9.882,1.3661636213411468,2.2132886146488846,5.397350849567546,2.7482402923373668,2.1166176012952427,0.9411946359795333,1.6830837251840656,1.2564699567810034,4.535718201146824,5.995833641309932,19.032412405368223,6.822304239638758,5.217860833614179,1.4030678550021218,3.8080875632158953,2.506901797281308,8,1.0,1
9.942,1.013122080417215,1.0504861840435222,2.6002805377721,1.4639828878125458,1.7419245570468915,0.6471177370117318,1.0003524205541323,0.8786014181632642,1.9364913505924948,1.3632064508455803,6.199572642296233,2.1057855163897505,3.6893820395138657,-0.06846877515232772,0.9452939365186411,0.9589166602300226,7,0.875,1
10.001999999999999,0.5196864145203772,0.5122201172333674,0.7862829808295196,0.9424994830825072,1.1527332272523945,0.6633004190539823,0.5753696946097165,0.8758730800765284,-0.896068129018779,-0.35221629521843334,0.15666816507757886,0.5693347027176882,1.6182873220284186,0.0322524286867601,-0.3159051427935541,0.9627298812675984,2,0.25,0
10.062000000000001,0.36318261189862383,0.636501441275942,1.2971504670994736,1.279891622535078,1.1093399210067747,0.7694929879198998,0.9759682832762671,0.8115347580938901,-1.729427321048905,0.0889260645338148,2.014326020795169,1.715914032884583,1.4401774696324363,0.6212230170200518,1.094019234972892,0.6574649138843088,3,0.375,0
10.122,0.732050900556979,1.0583005932447793,2.478314863288841,2.0781468827156986,2.036271057871991,1.1152483676813087,1.1809331573744135,0.8249017435932167,-0.006736259518607346,1.7169921219244912,7.265710645932965,4.566574711285683,4.42891131354303,2.4563653472257605,2.073291153106066,0.7069212658513666,6,0.75,1
10.182,1.685998022532523,1.7116395453452231,3.6074521831344923,3.0666684713745767,2.8842040947111585,1.588471960451101,1.2527340593525993,1.0598947813205915,5.691766861206851,4.356350362219388,12.480307460927724,8.363339489013585,7.941588306158628,5.268870744908849,2.312082811842343,1.7698024216052914,8,1.0,1
10.242,2.1278283010033294,2.0195345587047546,4.131614342061839,3.397929273840414,2.811013597861,1.7302012582286332,1.6133312257955057,1.1104011104767397,9.252390732947033,5.780807198649268,14.883046814392578,9.684264837581422,7.596438682944555,6.221641172161782,3.6369562742502146,2.0299307708576113,8,1.0,1
10.302,1.6351620509712286,1.6867624773270087,3.3648554660098653,2.5269609117398977,1.88425659455457,1.3631729077055748,1.6954073650190509,0.9220146767326066,5.616940959149974,4.298332699448296,10.894669896035294,5.7827148948820595,3.843414612116143,3.8357646631927143,4.022906416256006,1.1104512841282956,8,1.0,1
10.362,1.2760033894297729,1.6075164360184984,2.019459042488609,1.6039760192960502,1.1909079361527466,1.9450206160705672,1.697834665411769,1.528405466277177,3.7531779547028514,3.979930758218867,5.602915143812013,2.944874694484309,1.7566520522036972,5.926786766892181,4.009861275213111,3.377122837015205,8,1.0,1
10.422,1.9667084392021856,2.4957112372032446,2.540497279500724,2.2449219819405197,2.037047827341116,4.679175384977819,2.83629332269676,2.589186841686886,7.979961660245359,7.434346062354945,7.51649266309565,5.234103859798181,4.4335593100241075,20.673384304077672,7.727804187667684,8.686060711322613,8,1.0,1
10.482,2.3135563115638162,2.9185310048260886,3.647098472297905,2.630309298605075,2.8939750064908294,6.054670670201818,4.828174405037384,3.192424690459437,10.560288847239784,9.48663160750668,12.649429739737341,6.929217112042046,7.9634773923796125,31.242480199158702,15.327575600027595,11.895505366902997,8,1.0,1
10.542,2.050956017914569,2.3599136269319754,3.4958579849502094,2.5558237132584396,3.266285931176139,5.382865327262085,5.362008209572348,2.8135138175406067,8.819612464806454,6.935307510411139,11.888875291808338,6.648851771903655,9.417015396229804,27.16705498191915,17.8607273391646,9.806264517117778,8,1.0,1
10.602,1.8625921330937765,1.65903341514704,2.5554047161123434,2.972156818254044,3.434323697487024,4.5928522283789786,4.5732683545788,2.244610080834418,7.7235364956429935,4.318271724621267,8.026621546581321,8.071719991034065,10.02718313294041,22.750802479262692,14.8952733546655,7.337081271805197,8,1.0,1
10.661999999999999,1.892085611529259,1.3371281573775766,2.613916383770359,3.7643818032339116,3.6602611292401996,6.301411295625266,6.099784710777981,3.0039459072052623,7.913233553933758,2.9459767852279977,8.261417821385443,11.097903783811075,10.842709093216484,31.311231942087918,19.741108455116578,10.559917821537441,8,1.0,1
10.722,2.543697932849971,1.261650714687057,3.351823639746441,4.339385113894797,4.3385330906153845,9.951903855585668,9.817527339517508,4.576160646888423,11.399783566456888,2.617853796761378,11.405833518199367,13.336863224234309,13.184301062649238,52.50347144558322,33.901699636846836,17.926210717459682,8,1.0,1
10.782,3.8107140381800497,1.8895191624633532,3.26675489103421,5.120071623166964,5.0700597735245365,11.709105033862144,11.349433040001799,5.144620111334647,19.495437793984838,5.0391734348608175,11.007999036955157,16.126247964333324,15.93181067442395,64.21418063802706,40.8546100751684,21.07310206336155,8,1.0,1
10.842,4.088038132721488,2.4001470230822792,2.8427158975966895,7.110885418712481,7.046943560624193,13.098981484161648,13.12696855135755,5.136312612607201,21.653196687681785,7.368177775225743,9.312188788815172,23.174415455772404,22.322549301543958,71.66745992951601,46.9366688579431,20.93018528863568,8,1.0,1
10.902000000000001,4.172526460434669,3.211937306497535,3.8650198414940236,8.95071086730088,10.340990408424261,16.561229153891173,17.02245467381146,6.769695500347463,22.048534545362987,10.414902620753614,13.366931175805812,30.56339188099331,34.409171565047025,91.53003901471135,61.94227549504783,28.108952914334626,8,1.0,1
10.962,5.1917153364964825,4.342887145349841,5.104230010042323,9.279558240942917,11.108835864454644,16.536449354933698,18.132108636455964,7.63838368812779,28.430936353470003,15.166176435148364,19.027282675262217,31.919007701630502,37.83724296351625,91.18591619337066,66.60150734097023,32.84300050607408,8,1.0,1
11.022,5.682360892323713,5.258055833858081,6.501223390644772,10.731404563524809,11.760389646721482,14.074620873002356,15.556813347982493,7.014884838620007,31.80296212880928,19.040839379923117,24.972593863826635,36.86246745442099,39.810075245130854,77.19595539194175,56.37501280070452,29.91212247169524,8,1.0,1
11.082,4.633139703994033,4.863759641299179,6.384412742754032,10.927165825014075,13.366901374679331,17.13312540105867,13.565643492735237,6.450169474000023,24.07594654721501,17.074302337372437,24.116826603911253,37.315586303441854,45.91160099747916,93.78185232213427,49.35382039980487,27.292918475212417,8,1.0,1
11.142,3.28327018017546,3.7748319849697998,4.529372008019542,7.537845387447104,11.414876884893678,19.25402230654182,12.223093417946208,5.557439324131751,16.300845427487406,12.863204904234012,16.068524503713206,23.59870687410394,37.933150317898466,107.85310409961761,43.75382409121395,22.837377078900573,8,1.0,1
11.202,4.235620422716884,3.969881848515407,3.819040674570315,5.2759125918023795,7.434771470920093,15.33693547517853,9.636054268814865,5.02291320522867,21.867840025051112,13.72489066311998,13.567672227764604,16.798023471221807,23.92019111558478,81.82525480364862,34.00318737504607,20.43769108376283,8,1.0,1
11.262,4.866741280701782,3.891930650608974,3.55205549311629,5.20367902025947,5.087127267862982,8.976588238906107,9.449144876893849,6.007716233402393,26.625053142040112,13.401241872152175,12.264677514157627,16.45215671550881,15.680378225615682,45.235591539657776,33.45692762711184,24.94001466696372,8,1.0,1
11.322,4.431172187751632,3.0817841306924745,2.6593547120864476,4.0860017631515495,4.1531922949911815,6.457929422038986,10.414442560580195,6.708374560594958,23.8579717783264,10.062758153073574,8.430547186515604,12.10399328857532,12.65162975758763,33.596022605756126,37.26962649652247,28.52812557407133,8,1.0,1
11.382,3.410157638859712,2.277036580540822,1.8714845666882483,2.9541645838758788,3.590475878882612,5.991607524179961,8.88185364033951,5.776908000407499,16.48552172359644,6.653037903058064,4.862969904409812,8.019823195699091,10.301145733939128,30.17534502078775,30.514705061163593,23.574612207098564,8,1.0,1
11.442,1.8170900634693834,1.4112931992927025,1.2457982626210735,2.2783837390119017,2.3069656044358484,3.697847684574775,5.526570827630945,3.951525802737919,6.20143060941473,2.9730099765468325,2.4091190631646406,5.539748322721128,5.428294844782612,15.502225185820594,17.57716775473776,15.032026563730282,8,1.0,1
11.501999999999999,0.8511211081338796,0.7501237613260485,1.1548427638030465,1.9759670207329632,1.4962371984589284,1.55883249806769,3.3483478310260346,2.8202985687789153,1.2356401622781816,0.4911026373035053,2.05837437278971,4.467612417967717,2.9410887764165206,4.406356585785027,10.17201343875355,10.033193862503916,7,0.875,1
11.562000000000001,0.7791206664303826,0.6281429440077163,1.1664626641953673,1.6876208994989514,1.4670530322063822,1.0870978164975176,2.5535481403813542,2.0057599935131627,0.8930839579032904,0.11821291363631557,2.1032315767119436,3.221537824262716,2.8411882627689526,2.41733577822693,7.186448867962973,5.802946685831208,7,0.875,1
11.622,0.8400735899987825,0.5935495304607821,1.033925414823361,1.0218839509485222,1.1655222313269469,1.2150622949844203,1.6871687942294946,1.1164922065666627,1.282337952282475,-0.06566806493845471,1.493751356172291,0.257341300447443,1.529141910475336,3.2151049940128344,3.4145986805564985,1.8799247725956476,7,0.875,1
11.682,0.9430844830481679,0.44180383812887986,0.8654001500050218,0.33267418394846,0.6154549212080592,0.9779268922802812,0.8217367821462105,0.8532551723090703,1.9158412376375935,-0.6646220714238056,0.7979501145360528,-1.7826172586249127,-0.3920788901491144,1.6290318704032805,0.6014298031138314,0.8630832930401526,3,0.375,0
11.742,0.9122958824110107,0.6592687321696807,0.7241330104949597,0.2428811940500548,0.3669860697341244,0.5864337912257468,0.9245642246796609,0.8221942522557032,1.6525106354120742,0.07932919378519387,0.13059469809038307,-2.0494533888142876,-1.162501035944333,-0.5228520590877935,1.0081803352696281,0.7071019459659325,1,0.125,0
11.802,0.6133145312396647,1.004607097789764,0.48500877284547156,0.3569761704085921,0.4033799502123833,0.4208657558958747,0.9644077999009109,0.7515765197066857,-0.5051671394221154,1.607919880439775,-0.9405827486336742,-1.7379049081272504,-1.0365746096887551,-1.382263241665428,1.1958097835321662,0.3850045977428846,1,0.125,0
11.862,0.3217007898657155,0.9686158776207833,0.4173798239175407,0.8527229986766045,0.455783141119393,0.5640894190516298,0.6838572647451805,0.6706022185242334,-2.0151933027272992,1.391130023675171,-1.1870763708783953,-0.07981686303224596,-0.8262211162418877,-0.7194643358210574,0.11493437632776503,-0.028917887672580505,1,0.125,0
11.922,0.3324009119744399,0.5754960228225308,0.6643950306682939,1.2015488684498696,0.4133960823684838,0.8672519659559002,0.5008466730033698,0.5133657102316012,-1.9272654288029585,-0.30742425106532356,-0.1796547667188827,1.5173708772302874,-0.9868824434262287,1.079298243288275,-0.5180547091781113,-0.7798640148891426,2,0.25,0
11.982,0.3436281958391388,0.4101169342165579,0.8344620113456283,1.0988097926912759,0.3694856025251588,0.8565803972371976,0.44547831325376297,0.4190158115173364,-1.8485363800326213,-0.8096842991342621,0.6576099930518212,1.0921593097316655,-1.1406392451845522,1.026186587986852,-0.7232224228062045,-1.1906211014665387,2,0.25,0
12.042,0.40964413461759475,0.6442254359366211,0.8040855512103957,0.8019991738845297,0.39842439399987506,0.5542473261326314,0.5097199205515268,0.4521527549797721,-1.4855552585371887,0.11747738850357191,0.5263636008675013,0.03419261641717495,-1.0389124536687684,-0.7221192413870745,-0.5051587782375521,-1.0414079869836408,0,0.0,0
12.102,0.6131191662916554,0.7538515753561837,0.7990763480423232,0.6659607255240859,0.49555431231357894,0.382043017522524,0.6396862872616941,0.5116501293586709,-0.25169582798807394,0.6483546731633933,0.5026701335237814,-0.4627051618726748,-0.7003511511117431,-1.6115121231077054,0.005125187044463672,-0.7512522764933811,0,0.0,0
12.161999999999999,0.7348898365343243,0.8049117244477791,0.9793482799817973,0.547990279333334,0.6417581550874315,0.4752636821374759,0.7008780932537103,0.4996561883697066,0.6052719762659934,0.8464583402954452,1.2568772570491675,-0.9161439648116309,-0.17389045928946856,-1.1691556844305107,0.25317591961997205,-0.8123972703928756,1,0.125,0
12.222,0.6698502286034795,0.8867176207087211,1.109596109025122,0.47080382430742485,0.7959017923850832,0.7851502086793831,0.6954635176992812,0.4786066793554628,0.17479733628350003,1.1899609380614202,1.8469776294254725,-1.1871124828336315,0.4005315999850046,0.571033831442631,0.23233465681080678,-0.9172984520030374,2,0.25,0
12.282,0.6225008871755726,0.8102346152685497,0.9166820634080006,0.46189460718035497,0.7847973621808311,0.8317908184430381,0.6271214328810771,0.5767826363318035,-0.09840718650350584,0.8537708660952975,0.8529088474761383,-1.2219121776940398,0.3445692260797136,0.9243661168630165,-0.03875467694402196,-0.4787723341950925,3,0.375,0
12.342,0.7258303570910053,0.7145129662019661,0.6107761918084046,0.39438697178440885,0.5715299075714025,0.6790659154121496,0.6446505903774774,0.5492421443643016,0.5402061537227235,0.48895143171963346,-0.3281189118849743,-1.4986142809583507,-0.4844532960805465,0.07638191628631887,0.016124055163579964,-0.6419670327437546,0,0.0,0
12.402000000000001,0.7696711195789937,0.6467697908485562,0.6195491406352761,0.3234283264674043,0.37900148464055916,0.8527302932806605,0.7135625581925069,0.423830631270804,0.8329003248264021,0.18465788515106052,-0.2779519508850817,-1.74278876077682,-1.1174906799430488,1.0124353488310882,0.2832390465720209,-1.1875565308687634,1,0.125,0
12.462,0.6977598642827508,0.5085870732032055,0.5213238848814022,0.41165481026170475,0.2889446993193779,0.9362470991212721,0.5632378180940941,0.6052237292987063,0.36829957664831475,-0.36982889918442224,-0.833418862571316,-1.4466781002409803,-1.4758585101748602,1.591355829689741,-0.40931867613116607,-0.43090524068831887,1,0.125,0
12.522,0.6630587822059797,0.4718556800578672,0.344914770595092,0.5563685798573756,0.18099229906222677,0.819896247618133,0.40771181802187867,0.8933876982073472,0.1666616139122963,-0.5114081143955963,-1.5295440490870644,-0.8891844696769765,-1.9020643076909989,0.9221348088364273,-0.9281885688582432,0.9863529933311904,2,0.25,0
12.582,0.7737300219808718,0.8031359055893008,0.8383255592700338,0.7578606399628751,0.5671878097584209,0.9655443245716561,0.9457352377734602,1.0502395079573934,0.8110027775249066,0.5983186428284455,0.12895939581986923,-0.1824613266681269,-0.9710881883580454,1.6854327375282068,0.7505417220226772,1.7910791726432984,3,0.375,0
12.642,1.0845492631578035,1.6476479020408445,1.997094055400183,1.4736411265361198,1.5568856371890232,1.1402292185455132,1.7345203226715709,1.2059526128179,2.666786366478602,3.8514161468654753,4.937873427527594,2.1646541732203266,2.5385535704351065,2.79675277588084,3.9192642763143066,2.481558679475625,8,1.0,1
12.702,1.095339807969156,2.092018300662861,2.80356087247276,1.8725168196869006,1.9451609797460803,1.0235570324419063,2.451132670860239,1.5626651727803667,2.721635132337875,6.070493624007013,9.092316764354962,4.002960429550675,4.49356814320607,2.0538312512048265,6.825855103961331,4.118330058027026,8,1.0,1
12.762,0.8095790887830271,1.7198417806805237,2.8945393833101885,1.4902570129902248,1.424077494652818,0.7787572363689947,3.4176923242615733,1.875898181812763,0.9857094385316768,4.32045755859859,9.593415411052556,2.3556131510431726,2.28931616286248,0.6534053314239625,10.33461127344743,5.6855018482484025,7,0.875,1
12.822,1.183573855453902,0.9880552356367485,2.4337528893233116,0.9103481652111743,0.8258621159804918,1.0206669258444903,4.665730919380372,1.9646535953785154,2.928254988768071,1.3692798786225593,7.425876168971958,0.4241959999748644,0.454540596377702,1.714069567337613,15.140627216980926,6.116794460868724,6,0.75,1
12.882,1.9813083368017863,1.0654385346247865,1.7154594500068294,0.8997873815723553,1.2448411132324975,1.9048573644659683,4.81485601210315,2.232946475762613,8.077203953567402,1.5726815904594853,4.280361579361313,0.40540216538164375,1.791954735127132,6.636281790449153,15.755153782647476,7.294575110674,7,0.875,1
12.942,2.50068309920901,1.680115657673623,1.3491279702463508,1.0489414154896566,1.5034699676879584,2.4457585421500996,3.3928126971743504,2.765442751303997,11.71231594980591,4.244836217368705,2.895482256457266,0.9765319387012448,2.9700291009920314,10.383949565491887,9.650541928892956,9.82473613045817,8,1.0,1
13.001999999999999,2.533456843646367,1.6697768981563255,1.200753176594416,1.0494297433372168,1.4100998073803326,2.3903822197289615,1.9346977891903285,2.7952737934311496,11.957203405832557,4.274882129588744,2.1914825661258157,0.9820618423782577,2.6404392986775505,10.062514869005613,4.869565227694491,9.967111620502857,8,1.0,1
13.062000000000001,2.3202895111467146,1.4248243603882977,1.0560876195845021,1.12839572259537,1.4921845770491513,2.0923193264654363,2.1218930904679447,2.1698688701516113,10.59883882987224,3.368824166844904,1.6097918355718637,1.2453195774712553,2.9335823420819387,8.296344395137995,5.537183151911477,6.840769431691509,8,1.0,1
13.122,2.43026986962302,2.0443565048295476,1.9500844445492853,1.7264810521862788,1.7653738216928831,1.8745961137482532,2.96374060757096,1.7537138370143217,11.157211657675141,5.62056928387403,4.70756129020731,3.2732211548313774,3.873365742517789,7.067341372831966,8.69820527873658,5.016515104851998,8,1.0,1
13.182,3.2942368754986857,3.099809206265966,3.3416138781052127,2.49096419907463,2.816061557620544,2.7645665916994777,3.998834393121417,2.965543343611627,16.31416599371443,9.968195792861307,10.985660710732311,6.2491432164964165,7.2752203366061226,11.136373829982974,12.617365674607143,9.830521916705012,8,1.0,1
13.242,3.946380772821804,3.4423520641955974,3.542998584365139,2.7060377835895,3.98239621874345,5.951659327499387,5.655966012242024,4.10004730678942,20.851608773116777,11.626478175416379,12.256542076792464,7.20075937688019,11.879790545813579,27.943544397859117,18.702069300465563,16.017631645982437,8,1.0,1
13.302,3.824105649421546,2.889156957151657,3.406514594216302,3.2806474587852774,4.894165887880236,7.635159604583389,6.32269535597893,3.916799604347208,20.06175241213793,9.272537982580273,11.65456737700085,9.080558037005696,15.261857990889046,40.29315779833129,21.62691376906243,15.154783010193777,8,1.0,1
13.362,3.515783103104338,2.4572677327198282,4.576805054585364,4.238854561953154,5.46362897688796,6.514539390509392,5.428126033895441,2.989367517000321,18.154852689916744,7.632262207623171,16.542705117566218,12.866967669037251,17.408504409941028,33.29105316349035,18.112052986785958,10.787922112124242,8,1.0,1
13.422,3.196784817349485,2.473780605703008,5.208167960540874,3.97658721922151,4.6623574514204815,4.9923682861726215,4.844224641025586,2.420822224985254,16.059514108894483,7.7038867360055425,19.620354674899875,11.67323302608029,13.805863105967326,25.157367775785897,16.043950437814107,8.242832679651976,8,1.0,1
13.482,2.6252632759822254,2.537882955657,4.559029245020572,2.631400025058727,2.5603680524221275,4.882351603485448,5.96578974445561,2.177760061131189,12.402780219204606,7.9656764458540215,16.60086887304353,6.435509797157361,5.3220902373156616,24.57654329277206,19.98629379435715,7.090351518782828,8,1.0,1
13.542,2.78886333657762,2.8964657810117025,3.859947999694642,1.947473948821806,1.315334118278152,5.144069391595668,8.081421014376287,2.983703593395623,13.209922636848475,9.33360259997791,13.735689341028637,4.293969980828733,1.8666446778892345,26.016210050589994,28.021620438587444,10.220783069110544,8,1.0,1
13.602,4.935976867666784,4.3243615126590615,4.762770169008263,3.2406402576810893,3.8995064555519745,7.553941084565265,9.169130990600372,5.684984117688244,25.237274392839215,14.641462936218113,17.272858586873525,8.449549562820662,9.500491143815012,38.13629051526234,32.513932979723194,22.05856638689092,8,1.0,1
13.661999999999999,6.737344635528968,5.691426932165778,5.8117159943927446,4.90980816575046,6.364112842602592,10.567101081569914,8.668053438801676,7.829130485721672,37.911335173763796,20.650694396555554,22.10756958519463,15.133286330591494,20.13070272870207,56.893666962276825,30.58009303174264,33.44137699296509,8,1.0,1
13.722,5.722307312041265,4.9526199847815064,4.857075855347356,4.780260359124421,6.30673468125152,10.009905062514182,8.290811015475937,7.04632397335875,29.66804164096942,16.80442658348512,16.937745851060594,14.559105183836808,20.09812534812925,53.10041152899576,29.215531273104997,29.046738736422313,8,1.0,1
13.782,2.807942699291268,2.585912083987358,2.791852273214888,3.369227474474743,5.218373211517209,8.125294118099696,9.567323843030039,4.629466682782434,12.115880244406894,7.065568241973735,8.782778642334788,9.498064410129516,16.432927723828655,42.948915299122696,33.845587260705,18.297820045070992,8,1.0,1
13.842,2.1982605783522873,1.6557605324414684,2.689402346281099,2.9652899901376952,5.606223781578263,9.682261368885143,9.685677359226094,3.60298360842468,9.287094497244828,4.088529056867553,8.533636932300814,8.186458053664545,17.883079307033643,51.764610696078115,34.1539137198725,13.77150576880989,8,1.0,1
13.902000000000001,3.9695798016100916,3.300262988272541,4.316728994294126,3.531458142469092,6.386123016794803,10.778346477375814,7.048347479626093,3.1456441386354053,19.653655444503087,9.957483214794523,15.008010033252171,10.17394396466282,20.725080260413556,58.85594284919807,23.118086671173813,11.647105545977327,8,1.0,1
13.962,4.97474522957163,4.205364523820602,5.022132643047641,3.5341188940963444,5.956244985336956,8.845086180872093,4.006953502293539,2.90329037051593,27.182451302878206,14.613471091592361,18.624453114277173,10.022511436869761,18.680212996169328,45.58055899633293,12.331837705992575,10.52705831884232,8,1.0,1
14.022,4.246670381238731,3.314970976054694,3.809099918485404,2.24559569560943,3.694602511973841,5.055066989848354,2.7159401573675175,2.3387598987716265,22.142913463886163,10.415025241604978,12.736587136371602,4.340350317113592,9.279055424948046,22.89983982829268,7.860261755401374,7.53276042027075,8,1.0,1
14.082,3.026940070936434,2.0547718117787728,2.5022752906266907,0.9725243547036327,1.4054616018662736,2.5910240097757136,2.227992592061178,1.7513566320078946,14.917357710235871,5.9230293845121595,7.862593182169776,0.5600116482039698,2.290556844543198,11.06303520481318,6.038653730587949,5.06445069063195,7,0.875,1
14.142,2.378302642628495,1.6897533485229452,2.3056082229756854,1.4834957081696019,1.1778061900985923,2.2720979601440505,2.093720428225165,1.8194580182656488,10.814187894498517,4.412296895369963,7.032821721541704,2.2615173166224682,1.712230807064078,9.227346751830478,5.536226734548369,5.420575489215262,8,1.0,1
14.202,2.10989911286405,1.5985720183509875,2.125205598811289,2.058175879282296,1.8786912563731863,3.4849899060620997,2.712415493495102,1.9886519734389831,9.276424872201682,4.076330395707706,6.263930787649084,4.723239607270109,4.10907025862871,15.28586530251389,7.719021038530092,6.217435205995806,8,1.0,1
14.262,1.83646179251163,1.522195867767592,1.7406994620154357,1.8198358223872115,2.1124261974423835,4.0229874809391175,2.9173771250099807,1.8393890122979926,7.095456767267294,3.665873351772174,4.311270097943435,3.560669181452116,5.090075854296732,19.08184373821167,8.600706130852423,5.379710580653186,8,1.0,1
14.322,1.017453504846635,1.026506371203717,0.9811383349346395,0.9636058160016666,1.479887244302047,2.687747593925166,2.2164882208809225,1.2474506789301811,1.3255047942111682,1.570040193378369,0.7126684019744376,0.17559321737977088,2.3961217628436766,9.504498231155237,5.766973164797258,2.4370272681748584,7,0.875,1
14.382,0.360280779675308,0.7115142675706173,0.4122134249725508,0.4027792248201008,0.8629365314389652,1.1018009089009024,1.4367728977008054,0.7176551736348931,-1.834832622216626,0.4753120474062875,-1.2135810917809435,-1.4883157104485119,0.6067515314780193,2.306938789285004,2.93085964411796,0.10198029429596411,2,0.25,0
14.442,0.4821517574361513,0.6797968726845066,0.43974432637978267,0.4944029183249356,0.935440853350816,1.3618618300112348,0.9705180001265232,0.5725708271887624,-1.1190677441505716,0.34359812061507267,-1.069332544462428,-1.1669499805793861,0.8888206958693207,3.8594550111319283,1.1875175114854866,-0.4833375963898772,2,0.25,0
14.501999999999999,0.590106846769985,0.6219059547789276,0.42698651573142266,0.7182698873098043,0.7801593492499326,1.3875594211558935,0.663928016795187,0.7445816661206252,-0.30407909466357375,0.10264823867740673,-1.1256584983723699,-0.2978326641964492,0.24785785098892008,4.130187582289568,0.06947993412903701,0.28909995375748926,1,0.125,0
14.562000000000001,0.4962229966713515,0.609622131836223,0.35807511454289664,0.7823682902478749,0.548524620324863,1.0748636529766449,0.511128832431195,0.8468959095051443,-0.9643731001961791,0.05756079324495784,-1.4043062703116116,-0.03438484938094752,-0.4901262489303497,2.404775188991966,-0.4803528108136657,0.8337290534334699,1,0.125,0
14.622,0.3469440078357211,0.6831003049099068,0.42854284223339406,0.6155977944812849,0.5827570400338736,1.019843571727015,0.5456852491051755,0.7952179817938833,-1.8599407656954705,0.35484042224673734,-1.1166268549042675,-0.7203358843773299,-0.3824494782578043,2.105359162236353,-0.3656568944852793,0.5861449486881728,1,0.125,0
14.682,0.35773854657063364,0.6186376203877197,0.49712994610695566,0.5471847028034845,0.8938509819675895,1.0222446957634592,0.7926492942042747,0.749692469879681,-1.7874324115774016,0.027166123559371407,-0.7973446761845565,-0.9332604165093219,0.6343836374569691,2.1111868984878046,0.5231420994448405,0.3760570848817721,1,0.125,0
14.742,0.38665714056968636,0.4532373243163378,0.6785746565231887,0.6887943560473148,1.0138588089211973,0.9256880153389823,0.8799371742303844,0.6483784044612694,-1.5829733037741593,-0.6208566262313648,-0.10607834599833049,-0.3844162154456469,1.1664326786360333,1.534026040161838,0.9104741551123654,-0.16321086458139752,2,0.25,0
14.802,0.3505590219298789,0.5798092932488036,0.9137473728854403,0.6295779097010669,0.723860304540967,0.852357490900994,0.7219880163952241,0.5205489958530445,-1.809970228962088,-0.1554316310986451,0.9707827039631134,-0.6672647009866518,-0.029718680610140918,1.1288931556839634,0.2938225530856772,-0.7395649303837647,2,0.25,0
14.862,0.4000290326537567,0.7615020648339721,1.0562698314471315,0.39240348304471834,0.46196947146232087,0.7163064313313867,0.5485450869720668,0.5352365899368347,-1.525025432799653,0.6699992072530082,1.6095326700171737,-1.565586875140857,-0.8293979925327011,0.20900786109175326,-0.3549815540450851,-0.6680259721464572,1,0.125,0
14.922,0.48938450043021114,0.8504832181084692,1.258004786757597,0.31955719720348397,0.615634312338405,0.4649997636047897,0.3826998298300308,0.44941572495113885,-0.937833382973687,1.0440103674462047,2.4547363859314095,-1.7697619323382767,-0.3030938552631904,-1.1729159028571898,-1.032285154271622,-1.153197223135902,2,0.25,0
14.982,0.5094857617991263,0.8473163759171368,1.2073888576481724,0.3954433854162647,0.7810712630373818,0.44269813479675085,0.32080590298917055,0.4587586583556265,-0.8008652383243454,1.0155455367307833,2.1929098117584758,-1.4773470269736506,0.3527682029225274,-1.2801439972738042,-1.2335276683156071,-1.1543237652832616,2,0.25,0
15.042,0.47733865331275876,0.6861554175537031,0.9049048548849729,0.5323059222797191,0.8233401502984805,0.5763652881493743,0.4827959668096534,0.7405929330450578,-1.01089958194723,0.30532343533137624,0.937639968119095,-0.9982725432414319,0.5131547497590633,-0.5116912863899006,-0.6356867548406125,0.2073819308167122,0,0.0,0
15.102,0.4198644272906546,0.7085293503285738,0.9306512699699351,0.9562690177849964,0.8407130991414704,0.5995769197471593,0.625988190245713,0.7609246349335832,-1.3846200816776848,0.3683743526371926,1.0403883370012623,0.4055839585401055,0.5605486516458191,-0.35250417325701405,-0.04450731146053436,0.37538520341509746,1,0.125,0
15.161999999999999,0.5330910847338292,1.0954120287001083,1.4432058743748268,1.657006066966478,1.2456228625068377,0.5139116394396114,0.7415885416266429,0.6316448134700313,-0.791719714204341,1.9223617601923912,3.0605379611751764,3.0205326133194816,1.8560878731879962,-0.8469102442128019,0.39599543484586935,-0.18430162241420803,4,0.5,1
15.222,0.8193829491781447,1.3780141823897925,2.259890969381706,1.8711014163303115,1.417469402617571,0.616042879447456,0.8880682374796491,0.6863884842236774,1.0298514631434283,3.1974819260730745,6.575806150888611,4.033114170062658,2.617012630788349,-0.3349254664592445,0.9293610859037376,0.05689759223071472,5,0.625,1
15.282,0.9985890309139613,1.5329036484190819,3.165085392594616,1.5440511344683379,1.2427881161290166,1.0187826094237435,1.450647569905147,0.9097618712995277,2.2748271480111333,3.8356453392127308,10.585722116103256,2.7893270119994953,1.9982482752844442,1.844208924904236,2.810872473279448,1.0478406768853024,8,1.0,1
15.342,1.099858974382557,1.7296456682111907,3.236506073358764,1.4614068693157891,1.3701028518068628,1.450521432039868,2.82620189676445,1.1591055580924134,2.9010223344994457,4.632094543801283,10.954963341184659,2.487657571562624,2.4574016274294217,4.492241505561828,7.637914514612387,2.286073560160292,8,1.0,1
15.402000000000001,1.3137223144033676,1.7959522527017235,2.5661134073300147,2.3063140110502696,1.4915880188283077,1.5462011638832804,4.588281902730568,1.3958062405787133,4.2086147924259185,4.900773747872697,8.075516906516752,5.300850780845176,2.944024810658858,5.1567853072790735,14.56476472164505,3.3889829219765777,8,1.0,1
15.462,1.6086199491114437,1.5554418270136898,2.1129240999505936,2.697096476862213,1.2735193521179158,1.4642145916387843,4.585105305025252,1.7117513667736033,6.0057228763827375,3.8635986797038293,6.187330098356672,7.07859576736572,2.088917001551959,4.685330238780431,14.60775640993576,4.869203601953921,8,1.0,1
15.522,2.498823125137977,1.4448768036042168,2.071710585526056,2.2624479058853946,1.3827208036860703,1.5862771833235576,3.5651442175149892,1.9768829060927742,11.080322505813564,3.4676631593209173,5.996651429608341,5.400146846367893,2.327739171462555,5.370154385237158,11.029465083838268,6.1605975011189145,8,1.0,1
15.582,2.6755970427225915,1.7379042014545876,3.0921724294898336,3.058730014794859,2.7600049976559324,1.4867286369247774,3.9052333533734025,1.9465786899851674,12.469545924516398,4.626273443747585,9.879460879236497,7.868530067360794,6.800665029897563,4.703663207857499,12.362560654016951,6.007328280785312,8,1.0,1
15.642,1.7939777961613117,2.199127102131312,4.594129679460318,3.9855644232723235,3.5186101319162715,1.1242391047245874,3.7677083665307065,2.206393507961374,6.710965723245629,6.4852315559868785,16.59762552512143,11.91784235669907,10.259868407278832,2.643312558312102,11.83088125187809,7.100075487206262,8,1.0,1
15.702,1.0303606412230244,2.477052070421673,5.415837661574128,3.7087599151220574,3.1551053587113773,1.5129484570278895,3.6300929034672387,2.3361464025930734,2.2684988826529993,7.714470888837227,20.528276639854386,10.872059438747085,8.913089746597834,4.444337137161912,11.362398077482567,7.731789918115237,8,1.0,1
15.762,0.9960510214758339,2.474201314404957,5.478060418907485,3.4027543075290048,2.9139768172062697,2.4040036927053903,4.095972364494675,1.674190222135083,1.9776125111563045,7.705755768882846,20.816869463519385,9.814807207793597,8.125145312263976,9.785916645913256,13.18428712188583,4.24169719973934,8,1.0,1
15.822,1.9938095053733675,2.239850361485144,4.945422785621219,3.320111002737128,2.8266425993507385,2.570340508557409,5.169895096307535,1.0557788495922997,7.552208258162559,6.680450714286256,18.26767291040912,9.442538823870649,7.7637045111254475,11.01192436215654,16.96784691682092,1.7849319801027004,8,1.0,1
15.882,2.9240788806833806,2.0222437723998197,3.538226415519473,2.6619597837363855,2.3329197746264283,2.420031873005783,5.948660967264846,1.2962221872772652,14.193231601099427,5.805810005801482,11.52451049523885,6.857189874914494,5.942209563237724,10.117229969460853,20.162022768941377,2.8298527253006434,8,1.0,1
15.942,2.9816442443373474,2.3576444655803193,2.4116331205437374,2.520011930762282,2.5103134117047827,3.5833734873426173,5.090069520866002,1.9987053602658278,14.689635024298516,7.120184197703652,7.449321271993656,6.401504155027766,6.482218464565328,16.127106798423952,16.60294138662608,5.977437881078781,8,1.0,1
16.002,2.495435877941814,2.3198901898641497,2.5806037343294648,2.7897753422278853,3.055877810238774,4.747868765255171,4.923383977844511,3.001686790142424,11.65423524088184,6.9058053116859925,8.214845860479363,7.443854904247167,8.570408264702376,23.609559015490373,16.061374219877738,10.710965852095825,8,1.0,1
16.062,2.5129003089791766,1.6532647995854737,2.3543446468810063,2.3727762041471347,3.06355674778944,5.271648992511659,5.374031255429716,3.3524091719559395,11.773574061031866,4.145392797220549,7.1414931732418045,5.765560197458246,8.635791507145205,26.764459833142933,17.806341251597296,12.610197493860161,8,1.0,1
16.122,2.6798588073109104,1.826861933055862,2.0692187430975792,2.179893700095345,3.2447531086529304,6.114797315078473,4.072053780850145,2.8667555895105634,12.884610244719278,4.716998068843009,5.975319484373746,5.178003375446971,9.270614382702385,31.504628509903515,12.213988421236698,10.248313159795593,8,1.0,1
16.182,2.510773586083994,2.4943737642271278,2.3155546124159154,2.1279717909510634,3.2872724890190623,6.178553854674961,4.3518810892016715,2.71196916801033,11.799182614567473,7.64790974600318,7.0382623484477245,4.948301205912707,9.45465230713261,31.88654486905898,13.064258913271365,9.611945235731005,8,1.0,1
16.242,2.2859350482315386,2.42430441170524,2.577250032627314,1.9427997099329897,3.203382115633347,4.835541457522919,5.902683046228396,2.795250671120097,10.38818213395123,7.391560558230542,8.20445424487042,4.288850382558076,9.148367141077697,23.788502702807435,19.851937458373715,10.021358941540836,8,1.0,1
16.302,1.9914092513395631,1.9658050241085454,3.1989165997857083,2.4447033702456733,3.946930382245118,4.9498207928376,5.897220844061332,2.7595658893658546,8.466975645125835,5.60015294752478,10.726050495686478,6.112161144402118,11.749460955642151,24.341046341082137,20.020698684736505,9.844341409517787,8,1.0,1
16.362000000000002,1.867137177565698,2.1140015287139002,3.842762168257929,2.7451435437238665,4.161757067202596,5.656233995536557,5.111923279383616,3.0385528751825905,7.7062736527506965,6.117977924210913,13.68579264954239,7.359159051268887,12.632749844732466,28.892840427875274,16.97494007154626,11.15136990662881,8,1.0,1
16.422,2.5528846132994736,3.0462987945820252,4.488249925332049,3.2675387988082383,3.923756264894797,5.015045478479156,4.346229335463028,3.055357469157546,11.637080523599385,9.710807850389534,16.413067335001784,9.151613019017779,11.789723769948864,25.11855886326948,14.054399750726125,11.243190286240539,8,1.0,1
16.482,3.4666099248536373,3.804398903401525,4.900993254145848,3.7667310219112333,4.312113440502874,5.141331500177688,5.426844456047462,3.1535540884772044,17.632993959967212,13.121258323280573,18.301093721712835,11.15215955210988,13.175400579600286,25.706135321057392,17.494069654871222,11.58358754818377,8,1.0,1
16.542,4.121941595273552,4.160329756872365,4.746904595769488,3.275829246682028,4.105065512995055,6.533345122386689,7.895829424264052,4.114312084241142,21.93120187970274,14.604008836289653,17.63329830330549,9.125877703149184,12.270598211403891,33.748819905854546,27.10287780327175,15.933447935661468,8,1.0,1
16.602,3.752365827990422,3.8250703923885117,4.188184029819429,2.387609224062285,2.748973295513623,5.834518815234214,7.206014495225762,3.914523212098155,18.963164290067798,12.941157421928835,15.002136670881136,5.934508157990706,6.766759073763491,28.306478753565912,23.246839552162402,14.575494287012814,8,1.0,1
16.662,2.2677409146721783,2.4814197914684706,2.861604780866715,1.9149682885618036,1.2844829760937015,3.0037788130846548,3.4168478649555056,2.151627222807636,8.663288199406685,6.757380829909491,8.31858171343672,4.198356732934244,1.757624368957173,11.597704724384307,8.093100156980848,5.527430699940118,8,1.0,1
16.722,1.2219390461851014,1.4037647751101596,1.5277060304710026,1.7647151320309464,0.892953038473359,1.3580126705276463,1.4135085309304678,0.9050275251335297,3.6017220386733713,3.2556859165876353,3.5302538067401907,3.6742245031456364,0.6975188084248661,3.8408137298270693,2.634525612009755,0.996535161521018,7,0.875,1
16.782,1.6354319642823798,1.5745450621847663,1.8766917627391364,1.7334184772296397,1.1120680595327668,1.6625869834967204,3.0572275001619453,1.143206260685032,6.084523325628582,3.991466740120456,4.992530751061839,3.5442448631012513,1.538265166647231,5.449448470595507,8.089040306202198,2.0929835375968784,8,1.0,1
16.842,1.9630061924864315,1.7910788241897002,2.267706616973744,1.5401747171869198,1.2045462850473765,1.990419543403544,4.242550544878842,1.2867024594301784,8.33290546711822,4.8851776398637385,6.874175714549669,2.8099628915370225,1.904290173796129,7.7226732329733565,13.641364698542349,2.9022446533743804,8,1.0,1
16.902,1.815219962889144,2.0457001034610713,2.2042969128333416,1.5338236714510602,1.2520214667131382,1.859009708953793,4.34193810764484,1.3879725508153973,7.342012862552303,5.919331098302337,6.594806926973795,2.7815107989486427,2.0769709842115023,6.965474364722031,14.13264697252984,3.3227532752141955,8,1.0,1
16.962,1.4899391374247786,2.266480782421427,1.9721821191272921,1.757036748605285,1.2425358003991986,1.4478773011291206,3.473366261892731,1.8408462111228938,5.346875845943419,6.832159848092133,5.564515261815742,3.614480897594708,2.0390370516098613,4.212912593824956,10.27331202394866,5.400985596666792,8,1.0,1
17.022,1.1732638480293527,2.0319211963067154,1.471347882759386,1.5528711531432202,1.283266504485541,0.8150602758403636,1.95621768425289,1.7362863230753718,3.192204744484586,5.72301348501599,2.9958118520830195,2.6813997124327122,2.154493444040187,0.5890628710267456,4.3562913514014365,4.631582793161627,8,1.0,1
17.082,0.7831444453563832,1.3227091531681352,0.8332277681125071,0.9971266875486031,1.7026284801800509,0.6105716630713833,1.406899703246968,0.9261213809335564,0.8230483006074997,2.6842457350185374,0.5934841453061522,0.6925065954815762,3.586568824020848,-0.3115616316506047,2.8099784421365843,0.4092179071642272,5,0.625,1
17.142,0.5550809249162268,0.7161032054374455,0.9036919015002337,0.8269982422139238,1.7830998040756307,0.7243209563890277,1.637141843566874,0.5485310081462555,-0.5689031987437482,0.35056546405831485,0.9112820604998716,0.1504783240523375,3.912783688879642,0.37843119101624695,3.7817594018974052,-0.8505722914702907,2,0.25,0
17.201999999999998,0.42343668628044373,0.45341081643169284,1.0296256960524848,0.764346973359877,1.2024147109157504,0.7755383662981236,1.4962441791078442,1.0402206434209018,-1.3597545896603727,-0.5969674233179929,1.502446941163746,-0.10803119649190603,1.5389355147531016,0.6858586867609687,3.25132262046251,1.454490285526026,4,0.5,1
17.262,0.39262191144800385,0.40508433748154227,0.9109276063438416,0.5869948735940349,0.6768943220522144,0.8098601791170988,1.1950654329202828,1.080924744116949,-1.539369881022598,-0.7780025497918478,0.9543924569659074,-0.7816386017956093,-0.038579981895578506,0.8818406647912144,2.0466290893142403,1.764518582380684,4,0.5,1
17.322,0.5054364299273203,0.5055302043346016,0.7618321577444684,0.45245702112316805,0.6464951728694142,0.6887099841016665,0.7572645274572184,0.6921426531362289,-0.9068636940603261,-0.4081331680750973,0.3516276567886459,-1.2650406952162638,-0.13129932715455014,0.04086909663812175,0.13828161251830054,-0.01644303226651331,0,0.0,0
17.382,0.7082224457510713,0.6253237170071011,0.673595097815154,0.4939692593919796,0.6408168720811609,0.4602174119969212,0.36012774469945624,0.6019845362999698,0.37618188793290647,0.11408092409559316,-0.053534462637847585,-1.1282274640219176,-0.15118999583461964,-1.206466196334939,-1.0820744131660434,-0.3390668007965998,0,0.0,0
17.442,0.7048991737573009,0.7137045108725791,0.4984057062637591,0.6175007291559098,0.5556230255300652,0.5013395877819398,0.464362117086185,0.5642149540126611,0.35929954755408566,0.47458968105107885,-0.8513441918121898,-0.6472422075734116,-0.5034243008134416,-0.9656667621473064,-0.712189386064083,-0.5823142282326741,0,0.0,0
17.502,0.5658253310147074,0.860763143543914,0.31412829015125365,0.6025145602324908,0.4396387757935454,0.5728239166565577,0.6138296781010198,0.3678570784594754,-0.47772232417750304,1.0645949660843588,-1.648131257568141,-0.7115207849040152,-0.8936149519706853,-0.4946875730446374,-0.0966433947546153,-1.519731758840113,1,0.125,0
17.562,0.7518766797427748,0.8708355636108843,0.26194919357185453,0.4517494352731147,0.4807596658548407,0.4879188358563475,0.660250135352543,0.4538553979715901,0.560407006117814,1.1130261729986068,-1.8326623164664821,-1.3004702951061902,-0.7446649083906921,-1.0339550239545956,0.09342752387359436,-1.1902502651640072,1,0.125,0
17.622,0.9588775035796481,0.7975186247966556,0.34288457879156314,0.3781183503704375,0.4696831315259754,0.3503576828303539,0.7551867666682026,0.656119831740328,2.016695641462125,0.8262423432368026,-1.4816500432362891,-1.5422938287812171,-0.7872089005190087,-1.8183736630551681,0.4342317420370787,-0.11190187013092329,1,0.125,0
17.682,0.9129998471362321,0.8069328001205607,0.4107859123997636,0.4127262585797304,0.5329308237211471,0.3031089425552978,0.758280224530648,0.6309495590959664,1.6999900203223801,0.8678106678624324,-1.1730709634716758,-1.4094824730473938,-0.5997836244387281,-2.061939337944509,0.4357038239883011,-0.23208509305014094,1,0.125,0
17.742,0.7165548266324326,0.7977171747441365,0.43627334024724174,0.35665436487680546,0.7641107434273607,0.2970557675229731,0.5237395198682728,0.4405726314904846,0.4417132491941553,0.8316209347560669,-1.058431491609016,-1.652164186427428,0.24773956287860577,-2.0998288933550504,-0.5551622328864826,-1.1494940097366808,0,0.0,0
17.802,0.6287991604249926,0.725289363874118,0.5281163311134758,0.29599797106292053,0.8430348618250384,0.40344178017171317,0.31704958020335317,0.3524250875562483,-0.07760970934688692,0.5141391857143254,-0.7024850001152302,-1.8610439888814296,0.5745316374052406,-1.5977024255501118,-1.2341391505807406,-1.5251732556726953,0,0.0,0
17.862000000000002,0.8323577802110967,0.5986682693143326,0.7400217588893349,0.3737725031141335,0.6907778331869914,0.7507274025294212,0.5031210784798462,0.5807633754451054,1.1053198362546537,-0.011959888967401569,0.20065632515168688,-1.5743340222875188,-0.022275144882126684,0.29684004293983446,-0.6518294419682179,-0.5916825123850568,1,0.125,0
17.922,0.8389569004848864,0.8879475084781987,0.7511458079135889,0.4208001278535026,0.6286016559944513,0.9806393596337827,0.9095041573406598,0.8260215300020536,1.1509468179164697,0.9382704343990699,0.26076781241840846,-1.3737507064778693,-0.22193283955663193,1.8463670774487289,0.8913289672493488,0.6991892325858782,3,0.375,0
17.982,0.6038593210598846,1.2749834264535596,0.7246742811026337,0.4583606344997485,0.7256868976423663,0.8559308824191404,1.2570258633525153,0.9250369096859075,-0.2591536390525587,2.7125611983611386,0.1191978644457705,-1.2453778988893647,0.14213853819669772,1.0008402811813177,2.33581536606045,1.2023067714847195,4,0.5,1
18.042,0.5300000685600665,1.2468644338334451,1.0688966608007366,0.6761452628010566,0.6946801830569657,0.5930898600753329,1.4568004964198145,0.9121034046775921,-0.6713412921896453,2.621793376450886,1.5296104033252098,-0.5031761367731373,0.028607616889640617,-0.436185279087383,3.1322336120616256,1.1403428299270506,4,0.5,1
18.102,0.5822487179849699,1.231985212119316,1.2435003311633979,0.9345891962028017,0.8979207414716273,1.0372965526048172,1.6733464192138547,1.0009592865897279,-0.3584204458925046,2.559112961289462,2.4389667803172377,0.5232520891731199,0.6399786413675428,1.5322386654922067,3.923143491651554,1.5194417561196716,5,0.625,1
18.162,0.6428813526153792,1.44753066259384,1.1209560801663285,0.924517782091828,1.2719436066679646,2.010225835612521,2.557157696114051,1.5234649432113774,0.03725233834177386,3.476225701407253,1.8937978069377037,0.4681647292129835,2.0811462357555195,7.236378367656015,6.915207197729287,3.7482707540311666,6,0.75,1
18.222,0.9695341521383704,1.7318693175782414,0.9652926728856175,0.7163778100049015,1.3943998225014955,2.538570656518687,3.6990401076706103,2.3311206986258397,1.7504007197955627,4.599132567381058,1.2259945197034663,-0.31231834680443465,2.589798389978236,10.926762232528779,11.474527203280303,7.583669659608212,7,0.875,1
18.282,1.7723515170437687,1.9091869041326144,1.0442750560319967,0.9279547055657553,1.6256034274375533,2.637515162085936,4.6565427094835155,2.8295328623019556,6.569739682984651,5.358156712500022,1.520685195784985,0.3586136324173312,3.3587473991014796,11.521309119421877,15.242853641315913,10.1825929827895,7,0.875,1
18.342,2.4519320323391023,1.6209977724340965,1.2918756021911009,1.3725233211589258,2.0930497048951313,2.8043207340508762,6.045469056734322,2.7537732108002726,11.317901588099545,4.0583517882871805,2.5998274746879804,2.1226159242912925,5.085615678743987,12.468007689737254,20.325189537826237,9.819325149427412,8,1.0,1
18.402,2.7344508399882326,1.5030484471111412,1.190824864612111,1.8513336789534107,2.302193895577922,3.1581697845490035,7.09054288874056,2.805677137690903,13.12893069872603,3.511037495985626,2.0825189147299628,3.8836503076152944,5.903548835243323,14.485100096538297,24.535551332939942,10.01096132087917,8,1.0,1
18.462,4.643323987390031,3.609783682245568,2.7395101199973007,3.2481000982592403,2.5750526798042706,3.114380043991216,5.9747609229058085,3.9004502112227915,23.120931002293403,10.50818388386008,6.60915148604834,8.495960430534694,6.80350456240896,14.213648224977055,19.45169192117425,14.800157018789337,8,1.0,1
18.522,6.323218734686174,5.408205135382588,5.89519300934657,5.178607302712782,3.310874474674169,3.3734700906677277,4.483933724994727,4.399442263799984,35.398982682857,19.31970103766068,20.72284398630767,16.01236874998205,9.422588556287268,15.255565216229828,14.215840015774091,17.495669165324607,8,1.0,1
18.582,5.854838172068827,5.03260407328285,6.855078430708759,6.072007114615782,4.67951188734914,7.870920612288696,9.466960955390407,4.313717039075405,32.38610694277451,17.69378078596465,26.570041963006364,19.869001609248773,14.16330353545304,36.66474474707758,29.628334493621775,16.99280532735737,8,1.0,1
18.642,5.237581640140586,3.7577639905337974,5.497347333498834,5.675694457451842,6.127127224846642,11.466349063509341,14.719841717649793,5.9525557565583505,28.95360129848118,12.917144607993583,20.585262205197964,18.306342113444206,19.613491342960174,61.65773337867929,52.70454660553039,24.035762387181617,8,1.0,1
18.701999999999998,5.5537035167038225,3.7441443469606845,5.107676775349573,4.920787529723809,6.08436716074448,10.011452901032271,14.968924552296157,7.02259110480368,31.01818386767972,12.89157238324979,19.100098794385108,15.475012980244124,19.530589378749703,51.50932727152931,54.06618202288246,29.8867459855889,8,1.0,1
18.762,5.565621784634413,4.326094793415885,5.831787591371256,4.601768758450855,4.951423398896487,5.733794036904826,10.477336108905932,5.777736984321798,31.09301062558342,15.205277498082713,22.25977629892323,14.336640979403823,15.450189125798211,28.35299527055591,35.260368436200146,23.29925366919706,8,1.0,1
18.822,4.764162798027219,4.039069285021703,5.056832832427855,4.048214567816866,3.7360064596004237,4.191179014688672,5.761048724874507,3.498090759110228,25.30408302251816,13.654280919280687,18.12654854699299,12.032630312004436,10.679270230048607,20.522139540716054,18.74071392162772,12.398434500881779,8,1.0,1
18.882,3.1826279801137654,2.5790935578629246,3.0285047169942225,3.0075161636875123,2.4005186153788354,4.284042638576597,3.6126585530893496,1.9220715588811113,15.446190877243623,7.4978854579463095,9.618263844902648,8.230133514324379,6.0649748879526255,21.042009925751973,10.90928473315404,5.57821480067679,8,1.0,1
18.942,2.5314994875892403,1.9954486508296922,2.4899838779098284,2.460861155104732,2.5239369855689877,4.871030345552992,2.3697457039333285,1.811533195768982,11.944282164979981,5.6615446181263165,7.753038074748267,6.2611046786992075,6.483030106578678,24.451205979177672,6.429316736579135,5.227451032424974,8,1.0,1
19.002,2.3547845189388132,2.233895721270585,3.116663935364647,2.450228561788706,3.3344831816990106,5.635668076315718,2.831289995170938,2.4154224265400037,10.734697036112166,6.7154015072465505,10.45151264039824,6.235858078811764,9.569966607000834,28.798649408349632,7.889422357303027,8.117178171824248,8,1.0,1
19.062,2.3594894524542935,2.276301152489493,3.391719460776762,2.817569551038352,4.409575128194617,7.18430936203276,4.227032867753913,3.3524364927892822,10.67289508925738,6.890003304629992,11.764828258910505,7.603656160940822,13.338980526672858,37.41683874874243,13.391569678265826,12.347076424442553,8,1.0,1
19.122,3.0254152081362204,2.169526014160001,3.0377534763069622,2.754231228371157,4.932661405801316,8.226633403457887,4.809886379106418,4.053929260826773,14.824492331553268,6.3799137908587085,10.12191840661687,7.257664374833354,15.372240628577579,43.86840185272094,15.905112794896366,15.921577126353881,8,1.0,1
19.182,3.028456297705959,1.5927323703054568,2.366657257335281,1.9093986627213722,3.7676217361024285,6.774231648755476,4.0313855744000735,3.600769741248393,14.823918391514715,3.7067585646268753,7.141387535975736,3.6430913724423655,10.293039454663722,33.98296746783994,12.596824394194902,13.47519046682146,8,1.0,1
19.242,2.0859195605668597,1.061728707319994,1.639729310937526,1.068977337855115,2.1885674877816474,5.158591745047067,4.047732724417136,2.4411507157364136,8.384628362215125,1.8798700059697027,3.9313002060846767,1.0308746241534024,5.365298225869473,25.82820657277026,12.395227065289175,8.053857527223586,8,1.0,1
19.302,1.3707149653095672,1.2573590021692953,1.070079907019286,0.9338228953724541,2.1001128692476065,5.526509854912602,6.342906854885758,1.9993774469769454,4.597482636748671,2.6655779733453233,1.583694881471767,0.5105272693323687,5.108074232461076,27.921048819542975,20.9037705908606,6.249036628279861,7,0.875,1
19.362000000000002,1.298622606716381,1.3613929525024304,0.8337718230983819,0.7228268795245812,1.6723381544334601,4.208983990870426,6.4905942013593,2.1764983346458093,4.126343968988626,3.139558157230398,0.6607945943810333,-0.2996377848614001,3.1918985603934833,18.185022450447004,21.770184222628064,7.0934536126447005,6,0.75,1
19.422,1.0783826111136467,1.2342975083786911,0.9329357969860483,0.8872179978157946,0.9477918078291235,2.3285792772217295,4.79211628116087,2.2230032518561926,2.7031385112259443,2.6047932450752156,1.0392979282866401,0.2167011694703144,0.9233053058191851,9.461439027660234,15.655629119194858,7.329128481582998,7,0.875,1
19.482,0.9658180388661471,0.9873546854174661,1.0943443727572264,1.288263961866409,0.9120269356901981,2.3397109300796455,4.19294859127463,2.1995407424610995,2.0686330030840834,1.5289602151259587,1.7764765085446532,1.8166697807965981,0.8337541192435944,9.561627833183996,13.456523987989947,7.199886238875355,7,0.875,1
19.542,0.8598442531346062,0.7037087426618948,1.0368584959533012,1.4982819868162218,0.9719091317491685,1.6531940392804338,3.125479920572729,1.8328963454706164,1.3098752362993051,0.39699650918519785,1.5239464988876372,2.662060662936711,1.0563686019164054,4.643172388102841,8.6608124447558,5.215025155835533,7,0.875,1
19.602,0.685949118839358,0.6377366878322986,0.8848889488084529,1.2606608073184025,0.9907516215452687,0.6382963535383231,1.6553601693715918,1.1873309288360048,0.30151034934379445,0.1673676741017568,0.878077560838046,1.5795470221007777,1.1247060523229868,-0.4003985758644104,3.752909767596203,2.334751545758248,4,0.5,1
19.662,0.7586498723576648,0.7287446456034599,0.9343361556138694,0.7807144370910947,1.0572911616483984,0.525549835355203,1.444786871471853,0.8040703435617406,0.7401625035344702,0.5368718692486423,1.0360348942554602,-0.09440725146774999,1.359804269799227,-0.8331585517005391,3.080676890077664,0.46885145772367903,3,0.375,0
19.722,0.9033556216736061,0.9736764817499028,1.4073058144648105,0.8238070629420536,0.9639834643530834,0.6928831919098903,1.6083718036630197,0.524333328837295,1.6614653242542856,1.4688642732839339,2.9281408135509372,0.07081647692076548,0.9484839773472423,0.17422045708403075,3.7029309763503786,-0.7134211742417413,5,0.625,1
19.782,0.8260089320166987,1.1410729534783846,1.5405709029208445,1.031176904189963,0.609923051074336,0.8677858796562804,1.469027308574317,0.5366558222202801,1.066528286613058,2.2323861866808836,3.6497242955591624,0.9028396010866673,-0.42814311150489615,1.1857895500642313,3.043241574582192,-0.6460333231352904,6,0.75,1
19.842,0.546104104144111,1.097792968926091,1.1125292185989488,0.9404928335162596,0.5332623826222203,0.9881021020013434,0.9245707837611897,0.6252675671210416,-0.684254047937498,2.0534065353053395,1.6773031257159048,0.504699845303046,-0.6915725731113915,1.9181816328752508,0.791467953388159,-0.21846272066107456,3,0.375,0
19.902,0.41728862731228084,0.8698925433226449,0.8185582217262215,0.6484442328222493,0.989275627379298,1.1225918118159257,0.6851705821989359,0.722434842763921,-1.3962129987159857,0.9891398350217616,0.5876090623313205,-0.5802478792194817,0.8951737745852744,2.677390898324905,0.11158365597496078,0.23391581586513246,3,0.375,0
19.962,0.5721005346540263,0.5093811568136851,0.8016595811893398,0.5025666785400541,1.1155125745225634,1.0724891418410294,0.7453204031732539,0.6540155164091794,-0.5309365347563703,-0.4773758228055121,0.5161367775692307,-1.0675621688206143,1.543607499941764,2.3047806818106005,0.36632620597751747,-0.1977706032962995,2,0.25,0
20.022,0.6519412879716677,0.47347785703218304,0.7080311025393494,0.5260435939043986,0.8444258614841001,0.7326425877480107,0.5759202357775776,0.3914827778529479,0.056960233323159803,-0.5811575752118509,0.10671265615063914,-0.9861055200856184,0.5235846852544705,0.24724797838476661,-0.2930359766466711,-1.4678818918530523,0,0.0,0
20.082,0.5384624435519861,0.654832179798187,0.5945218605330356,0.7710446741984576,0.5786060263163912,0.5164351861323856,0.7575468187232113,0.2805611877867743,-0.6778327017921398,0.21390111351658606,-0.3870705169049353,-0.175095997423546,-0.42817968686621427,-0.8249380148619285,0.2779536128736993,-1.8534393770613464,0,0.0,0
20.142,0.6474472701090805,0.8055892988430708,0.5352670187217439,1.1374559554160766,0.48223761144827393,0.6118633502033606,1.03732018898085,0.38174575996751275,-0.10808233299530927,0.8460370890803159,-0.6343056228452735,1.2355698741594756,-0.732244971725533,-0.3174872359947532,1.495097739164106,-1.401550964234124,2,0.25,0
20.201999999999998,0.9461989296842033,0.8108999381688016,0.6184435631561592,1.2588694528836983,0.4881890254141401,0.7936258120614595,1.0137498361926218,0.5753086379119106,1.8525355307107823,0.8618159917250293,-0.2934245185518709,1.772506437790603,-0.7128708164502665,0.7444487700185491,1.4195934354996542,-0.5277669520228221,5,0.625,1
20.262,1.0335832323762024,0.6993830952574591,0.7485582048940638,1.3070721491050399,0.42041910232913143,0.7802550674443886,1.0364629584177794,0.6748930827062806,2.484421591743762,0.4144869893011682,0.28541707730229443,1.9433871685943567,-0.9697788548988555,0.662374956902279,1.5052342468274815,0.01752265719972476,3,0.375,0
20.322,0.7834949476689488,0.7374662273402232,0.8468790402574449,1.1561564261462391,0.4193223402444089,0.6245911415850889,1.1696736218847466,0.7397886292458432,0.611313170277846,0.5683917118164684,0.7172780999481193,1.1846949825392872,-0.9710078445637028,-0.20466903040883888,2.0410464078207053,0.29665342585276666,3,0.375,0
20.382,0.39780090892725567,0.7099366307059127,0.9005820599425125,0.6206841692032505,0.6169974111927322,0.6479484669372488,1.2070741091782882,0.8687482459064014,-1.6926660286905237,0.4232693893186774,0.9543714575167604,-1.0150505302030963,-0.31090270422029737,-0.07223301856199794,2.183068809472795,0.9138683054489877,2,0.25,0
20.442,0.252086311808594,0.47997446864759213,0.8471346668516763,0.22406243426017086,0.8601298772977592,0.7206383600318089,1.079917558735817,0.8398341572663989,-2.424930621500971,-0.5805530892200061,0.7066501670312557,-2.136486125788815,0.6024975153886601,0.3679698461853053,1.6439725275592363,0.7710092329052863,1,0.125,0
20.502,0.31936576042518433,0.34754858608393857,0.6978364586712118,0.38695387645810436,0.8201916644442396,0.7042774360326376,0.815261313305808,0.706834019475268,-2.061873576635557,-1.0312236413155176,0.048528036062715385,-1.6489874557458828,0.42536630448310836,0.26901156736435833,0.6508889321663265,0.15842665593055535,0,0.0,0
20.562,0.5591270291140518,0.5020410643392259,0.5576379415553062,0.7277523158647126,0.5668162342677734,0.7586766459410151,0.845550849456695,0.7164808380882887,-0.6738797275632332,-0.45514154984155386,-0.5452157944315094,-0.3567577612353216,-0.4568153451640988,0.5475200136332996,0.7583001663212604,0.20776064888096027,0,0.0,0
20.622,0.7433669807020661,0.7408277313888889,0.5498225613317427,0.9355124597097934,0.5208882270144155,0.9439255969747526,0.9328717219505874,0.6785141345597847,0.6519578834437421,0.5397346189322869,-0.5786806865869,0.55455362703613,-0.5924561781614298,1.6204042711347257,1.1204489336769266,0.006124982895425781,1,0.125,0
20.682,0.7195733937269984,0.7854995878623084,0.5909184031057909,0.9120382615728821,0.4711842726799667,0.957349469133494,0.7909280864595599,0.55647096433988,0.49608519740742985,0.7597193088840793,-0.3916524038848424,0.4608527132261251,-0.821654695529558,1.7072330306061572,0.5563162042450484,-0.5447194331688231,1,0.125,0
20.742,0.5574366061839381,0.6385034553387826,0.6065869102571849,0.7809575356799381,0.3326785627257562,0.6875267987423683,0.6930903991261069,0.6400593572578182,-0.5607722308583013,0.15541570447814415,-0.330178639892026,-0.03553192825757034,-1.303874711036489,-0.07880946922307369,0.22199307654046288,-0.19877720182086553,0,0.0,0
20.802,0.4581759371946781,0.6262192464073906,0.8013732033879873,0.6751391590201286,0.41131721544495353,0.3728599869495865,0.648239278176347,0.8118412569819301,-1.1330828630508818,0.1102906331140477,0.4410485092792919,-0.4211217950884392,-1.0489436904647838,-1.749945221703399,0.027919788231023257,0.629979640746706,0,0.0,0
20.862000000000002,0.48950654192734405,0.7772048228983481,0.9114393170671207,0.6371787236919276,0.5730389706331624,0.3152928426362548,0.48059120825956164,0.7296391656415047,-0.9345437118677787,0.7212377420381985,0.9731351834981431,-0.560615159501905,-0.42157219164142945,-2.005144129215298,-0.6431632572990656,0.16465156423081026,1,0.125,0
20.922,0.45629048562164937,0.8035884780548279,0.7028277395443172,0.5521101023559809,0.5360114786206139,0.27144643665854096,0.34585808174608706,0.5362902872916396,-1.1758560608370214,0.839763453252114,-0.06236513298939358,-0.9176064828995131,-0.5847866843766375,-2.3331047603160737,-1.1113863267133512,-0.6452136205767542,0,0.0,0
20.982,0.36558886635280047,0.6373695230540849,0.4128384816771063,0.4663561808733235,0.4972507639261439,0.2087298088133369,0.3614527115851516,0.5363907952923278,-1.7287474287249578,0.12057057453549741,-1.1920415108397382,-1.2268789935822124,-0.7316708338561945,-2.6611071664014188,-1.0511775162740584,-0.6336034310652269,0,0.0,0
21.042,0.40520741179760306,0.5329270883010438,0.27032564836468653,0.7098311636070697,0.8095310509398695,0.4605341274963494,0.43428601937000494,0.6904699620899418,-1.491817633695275,-0.2611726175562709,-1.8811442141767631,-0.42562018971724197,0.32743259683553544,-1.439019018416032,-0.7721818212146068,-0.013068308971185013,0,0.0,0
21.102,0.45790159943634784,0.6370593944971048,0.15805496476201125,0.8778462189527612,0.9849399265832959,0.736847578431166,0.4920950199493125,1.0510056020077707,-1.1293613024757525,0.1470260338559083,-2.3177598004531155,0.31078149187493703,1.0805463594243636,0.36481325341528387,-0.54774919876526,1.6557103040879018,2,0.25,0
21.162,0.42339259192381157,0.8184171038295226,0.4465372313483864,0.6821756970217574,0.7936179914778397,0.7159716629590563,0.5641631443333188,1.0727204982743554,-1.3554513864740036,0.8851950845966465,-1.359677364756614,-0.5802909628412901,0.27914794404494253,0.22332841380483062,-0.2800263904922155,1.7911390327777053,2,0.25,0
21.222,0.5031889454796765,0.8824099249856721,0.7508519818330127,0.3452764959022045,0.5662346171071665,0.4847153879670364,0.5841770576372902,0.7554011159896293,-0.924345266860663,1.1731374064742512,0.20549271079786516,-1.7047619397444451,-0.43222450918671235,-1.075165335135855,-0.20944012254737324,0.3173251919865417,1,0.125,0
21.282,0.6990542120974662,0.7894648131358744,0.69807497686247,0.36064328466736545,0.5886113890037562,0.6081631177320547,0.510204410332664,0.6677157334522681,0.3340416562731832,0.7840140855552752,-0.09388618805128518,-1.657798105507494,-0.3439228572655775,-0.47439946425342333,-0.4999596206901365,-0.02025438787321911,0,0.0,0
21.342,0.86468563531786,0.6694275106148778,0.3980702940269785,0.5184476608154528,0.6772001247708624,0.8901869328087115,0.6053255727512667,0.6842162145899549,1.4156109814675164,0.2937874401244595,-1.3130815603971817,-1.0467305158620197,-0.04323263515660555,1.2789575743250898,-0.17842300510334405,0.055374535885702354,2,0.25,0
21.402,0.8693536837839454,0.6558142753560925,0.5833556598402179,0.5286261859350293,0.7577543872488833,0.9834112019384514,0.7128968370284738,0.5628875628284612,1.4427510144961104,0.24314658136834397,-0.6729162724894415,-0.9917497090877655,0.25734420333525043,1.8778451583815459,0.2830463795374301,-0.5574217687851379,2,0.25,0
21.462,0.7154270435258998,0.6600510869788513,1.0946685630523403,0.3681022436825514,0.6754974103609576,0.7633041615759366,0.5507432068142042,0.5621776159776987,0.4513062438400912,0.2562212396994293,1.5726247689896022,-1.6451603627624116,-0.05869500860385651,0.34702209382015603,-0.4792326605610669,-0.561234164348542,1,0.125,0
21.522,0.6081797669429444,0.5323058374709224,1.29660107508236,0.3459750522921145,0.6266274064063981,0.4780697209460072,0.26437678080345833,0.6816807876139342,-0.18056232956382146,-0.2980984270372247,2.6334993205496966,-1.7314484299245725,-0.21165052670295018,-1.0957594398456802,-1.4989195859068138,0.03994780944071472,1,0.125,0
21.582,0.5735438225357148,0.48867344717200145,1.037188861688194,0.6064264658785824,0.6230589915444319,0.6998736600238152,0.3036997049980347,0.6265648393223332,-0.39892473681846746,-0.45583905663716423,1.3949844015920314,-0.7881328034868841,-0.2347236746565279,0.031951881547354455,-1.3829358109248888,-0.241697942503069,1,0.125,0
21.642,0.628174039855305,0.5979675718074888,0.6519008525565314,0.8942917419598799,0.6404312969435265,0.9726077476341846,0.7509186869416641,0.773325373323735,-0.08794638162705799,-0.0027007820788155688,-0.2056439444921214,0.337960554290378,-0.2176427152919329,1.7847153749697036,0.1349445472467379,0.24946776536674262,1,0.125,0
21.701999999999998,0.8370421537334655,0.8030897623034502,1.016506391546135,1.4226001903434764,1.2672418447058313,1.0878330918015555,1.6465102805339935,1.7074175180550213,1.179366634280305,0.7684235211271478,0.8751187127090491,2.1867033213622373,1.7180954643118487,2.504258119766287,3.366725323344944,4.169370584256465,7,0.875,1
21.762,1.2898065975354254,1.3333657571098254,2.2842637327377764,1.7047726701648525,1.9387487058840673,1.2466088000312108,2.369427336302471,2.274735675603324,3.8530032518531354,2.7854880550347403,6.136313874957654,3.4327619628537054,4.462203797843748,3.3779970385315914,6.492496086473863,7.46086387569954,8,1.0,1
21.822,1.5136754439617892,1.453902865938712,2.5974496092008446,1.4465337041487885,1.9110851560285687,1.3351904483642605,2.1761968507995255,1.8429738208495392,5.456311733406568,3.399061348125215,8.062761576202789,2.380272816701843,4.357872620471812,3.8829727197754216,5.6390526477884295,4.973880175225945,8,1.0,1
21.882,1.2913927997843542,1.0089633410299192,1.7621046332222956,1.0820730716007667,1.3604858124083379,1.0042381614858984,1.7465761079809916,0.9292845088132655,3.998041601424982,1.492276849805342,4.224154295535362,1.085047566483215,2.361386476438647,1.5232165923614538,4.174944056793057,0.9457314551783447,8,1.0,1
21.942,1.1075554112461454,0.9146825192358229,1.5168642857915644,1.1400019031488244,0.9988353421552504,0.6517282735231882,2.238709526423701,0.7265176738381572,2.9697771205864467,1.2010618270612652,3.415157810118908,1.2797309876772898,1.1309814770114177,-0.1815496451304698,5.968449969122415,0.1935423723028529,6,0.75,1
22.002,1.035341700657288,1.388579044016887,2.2820461936147765,1.5042558598680362,0.8569360531315352,1.1305530780614212,3.161875148488922,1.3535589310838771,2.4761033046656187,3.1012929971724588,6.703894673130056,2.6244316127204486,0.633265949681767,2.329183786357951,9.394489681646762,2.7623403964826,7,0.875,1
22.062,0.8205323964763347,1.5860993483807901,2.7985635604419756,2.0423005526730647,0.9245204048802773,1.5289667739512809,4.6854962448196265,2.274181881174045,1.0968115843912092,4.003915076484727,9.16969658801002,4.59595095142696,0.8068314843924411,5.0274541117435225,15.015906164976291,7.234051908833693,8,1.0,1
22.122,0.7850960312514322,1.2142313260680204,2.6240866049212195,2.759829477400793,2.2900691477240285,1.8064483570320173,5.2709674490150995,2.572785094373179,0.8108230333699176,2.2357058617887935,8.30515015497363,7.2771373829910075,4.708774515502308,6.616634150151289,17.557437235356897,8.888198365067506,8,1.0,1
22.182,1.5332438181250685,1.0899918545645486,1.9207468391530496,3.3024549535867576,4.105262350495768,2.2726070130308837,4.255193020901579,1.8775621970094645,4.8189938338254565,1.8079405339737982,5.129645334696267,9.437980520762126,11.887947850913179,9.268438286726271,13.415414132387902,5.002472111112955,8,1.0,1
22.242,2.0385950027571353,1.6132913800922353,1.4614327715653452,3.3523813572554744,4.197536586414842,2.7314716792177633,4.054413331296167,1.4479692974201712,8.752886337673278,4.026945295761828,3.385452135613697,9.633300785441675,12.426344355634292,11.99257152932521,12.72069286985227,3.2681067410934355,8,1.0,1
22.302,1.8689737717154933,1.6339201955143439,1.4211759952684637,2.7801946111068188,2.8642842964794006,3.337085996246258,5.756194461456968,2.8338784944156417,7.658958620291194,4.169297094837487,3.2047806765028395,7.244580308350045,7.697925073819359,15.406803855795046,19.080692552476776,9.24102341294322,8,1.0,1
22.362000000000002,1.9870442211546562,1.2999748610210324,1.3171267856543798,1.7130447244033336,2.0568361797749866,3.180628916688105,6.617984473710466,3.899688791868354,8.312304682020983,2.856672724673425,2.737517422934049,2.8572764516122393,4.916892123392344,14.293854564242814,22.814251190149502,15.169675081672688,8,1.0,1
22.422,2.510703296126105,1.3717227113867863,1.7928815726381895,1.0443683811373412,2.1686661526092874,2.9711510583482434,7.721921571375665,4.476443168490188,11.705309447495745,3.1178401857472324,4.462560916414942,0.7613648944584033,5.139482899233529,12.98530038384734,26.7067516608213,17.92292174376502,8,1.0,1
22.482,3.5260880595116078,2.202327003390773,2.8872883993166076,2.4210826202977858,3.681182074911585,4.970544677871216,9.653038145229715,5.5919897640657235,17.663165880098315,6.182860452707767,9.201175473349252,5.030702154229647,10.251292506030108,23.58245921364089,34.23276461755025,22.976074443376515,8,1.0,1
