t_center,rms_emg1,rms_emg2,rms_emg3,rms_emg4,rms_emg5,rms_emg6,rms_emg7,rms_emg8,mean_z_emg1,mean_z_emg2,mean_z_emg3,mean_z_emg4,mean_z_emg5,mean_z_emg6,mean_z_emg7,mean_z_emg8,channel_count,frac_active,global_active
0.1465,0.7327290298940076,0.7351630364142732,1.7883089464304631,0.7912417803707457,1.4636955049103357,0.45193762526098574,1.0212296519755923,1.1036745461229946,0.37100227006185316,0.6908417183823328,2.8530036014570626,0.1885900670962178,1.651238698886273,-0.4956507401438454,1.0589373048860053,1.3050439208347842,3,0.375,0
0.2465,0.6657737596822981,0.5534924439850343,1.2504148704761195,0.7484970977211882,1.6538741330684112,0.3093791256147135,0.9194905022441817,0.8670769190629619,0.20714640724933034,0.012939265564191376,1.2612430569296231,0.20045750240400856,2.4672744802145448,-0.8865068827639664,0.6664916295020046,0.76881375717953,2,0.25,0
0.34650000000000003,0.8552413805318546,0.7025331068177666,0.6705693381817641,0.6868886555930084,1.2426536209284238,0.6135233817414105,1.0815576694020934,0.7685715300244046,0.7812795029690914,0.3091406594676666,0.030687664897982993,-0.12188750249989942,1.1483904051032576,-0.3557171577857236,0.8371608502337301,0.3958515476675526,3,0.375,0
0.4465,0.933792093728114,0.9666964471812086,1.010825192526775,1.0279287213784103,0.7298489131383553,1.2617950968805791,1.3656270986863093,0.6961955842207501,0.9243187676901203,1.146055549428821,0.6568642555022719,0.6265967125682782,-0.08533688687731981,1.331134821925705,2.0297884581638765,0.038751456500706084,6,0.75,1
0.5465,0.7124039145958203,0.8201015031035802,0.9391941511069384,1.009313602387395,1.0239638160838245,1.2638348905302024,0.9798514830202026,0.7036948690390541,0.09527274109673523,0.6172387305659423,0.4083970893860698,0.72545284028979,0.5813380453077015,1.319613898123964,0.853630803806503,-0.0007448721837543115,1,0.125,0
0.6465000000000001,0.7540266462679074,0.5703155991239202,0.5857437383585231,0.5311095742959744,1.0247181806712935,0.8311314816347759,0.5843059129374574,0.9889887189846338,0.31819554540093525,0.0824684784520609,-0.2609560962431042,-0.3611678169983257,0.8209163595182528,0.3838054778297625,-0.07777894268332622,0.8992875785378154,2,0.25,0
0.7464999999999999,0.773110150896415,0.5275053501176453,0.7443503940252891,0.8582651885116336,0.7377470264576519,0.7834365599816595,0.595951366876205,0.9785204780900827,0.446025054900264,-0.18844141227398065,0.28429298632874306,0.25313551253945343,0.16089098411672606,0.426744097900309,0.11996307115729234,0.8019216551768644,1,0.125,0
0.8465,0.5825658288528093,0.3592244819486149,0.7808520592128799,0.9847465548645702,0.734201277128362,0.6834323104169852,0.6127501202212744,0.6209014028156423,-0.033847177172747725,-0.6444166329493684,0.49901149079449914,0.769589292252918,0.05616196020096892,0.2539825683528115,0.19600475053348615,-0.19613425845455165,0,0.0,0
0.9465,0.5042461931083928,0.4320515576220422,0.6363202201875483,0.6866115019576715,0.8571304973587687,0.7130782539963076,0.5199520981656779,0.8032200636822353,-0.23838338044125365,-0.3122201342176798,-0.10364034416879571,0.0702440823096536,0.2697859240462652,0.34229400405455285,-0.26630889997985485,0.4555944471143657,0,0.0,0
1.0465,0.3240719935704189,0.5180531351974453,0.548119091258376,0.4251225942769488,0.8405364790857519,0.698470330556301,0.6172296988906054,1.0491500794556752,-0.6482986527747404,0.025326894956000264,-0.44440008350948845,-0.6476912137425406,0.346518049739004,0.2751878256235466,-0.07041232827196453,1.30227623773373,1,0.125,0
1.1465,0.6519984453610349,0.5892801305036287,1.0819496577518517,0.36776882783754167,0.6320270563040045,0.7082121093514815,0.639669271930644,0.8373413155971187,0.003059268744529367,0.11845411520234439,0.5161923794466382,-0.7404533169424111,-0.11390431907314548,0.2866032719118606,0.13524760636217825,0.37620115108972696,1,0.125,0
1.2465000000000002,0.827586579045015,0.832790388017191,1.0514843471501383,0.646032787990972,0.5687767087995598,0.7672788267566094,0.8913201907566436,0.4671091265911443,0.6639067473055309,0.8685371290410109,0.38233122758695387,-0.06032627455951608,-0.40744313067851756,0.5108870446941643,0.9082720793292138,-0.6590684506205682,1,0.125,0
1.3465,0.6476836026595427,0.845593554965246,0.5808762631749814,0.9079172736347559,0.7639998972191209,0.8127594113295097,0.8245391384197441,0.6428301256953757,0.0930840248318716,1.0143220548538563,-0.22113312899916898,0.4955926993778781,0.03139790610314386,0.6051550583625193,0.445720777986111,0.0026923800297230694,0,0.0,0
1.4465,0.4592487306057759,0.5853882553836272,0.6639482564186034,0.8907617218740795,0.7586490364456145,0.7478803791067399,0.42591816375755137,0.7410712649103579,-0.44767689515511927,0.13365908938565874,0.11723061961246213,0.48368127453208537,0.05484280829723286,0.33438132360008305,-0.4625764986203236,0.483784841504768,0,0.0,0
1.5465,0.9872805843360621,0.8228534474107848,0.5607477976353487,0.8307031624640899,0.5589660598276196,0.6162618784076331,0.599789975949088,0.6294574954583636,0.9152505070584742,0.4930445655437572,-0.1989334117579928,0.48597347329201956,-0.4490878202886812,0.04719262485701762,0.016065570933731753,0.03308732877826048,1,0.125,0
1.6465,1.02283894007486,1.1410680639458686,0.7977916227248779,0.9190045939396754,0.5772946895842288,0.5681176077816517,1.1121127518577028,0.8468210337075978,1.1109448244934397,1.759820910436937,0.3542133414428059,0.4598074868716067,-0.3612521448349182,-0.23356859877098898,1.1980297544719876,0.40925870430207295,3,0.375,0
1.7465000000000002,0.5701670320748675,1.2017827922160773,0.9237094871779409,0.9116694118443843,0.762344028710236,0.399917159610566,1.0679339340569658,0.8814172566924189,-0.15371445113988177,2.208958320847863,0.5399619468068968,0.469833888655263,0.13902255142794112,-0.8670176543466781,0.9617068561904919,0.5515272506848634,3,0.375,0
1.8465,0.6604660229245873,0.8956118124195378,0.9052790551252323,1.191003474329622,0.9569220836976688,0.4404474650233752,1.0909638445213496,0.6208990575250664,0.04036892625033118,0.9057732617864179,0.32865623452667664,1.4183266531740406,0.5583631460608178,-0.6476567188489214,1.161405172938103,-0.08546634309667658,2,0.25,0
1.9465,0.7932301622038906,0.7707285862890553,0.882081949193565,1.1947444928313005,1.1039447481918443,0.7457110370301185,1.0972806984828938,0.5235128692090045,0.36203869542599754,0.421520639497323,0.5289289187020171,1.3840486503358014,1.06755060058819,0.3746584346289839,1.3055083306416353,-0.3966164372496491,3,0.375,0
2.0465,0.7198121910365877,1.0873433244152113,0.8071652063420875,1.112346077690071,0.8775673541625745,0.7458955759208061,0.4689282222954339,0.5449491473973261,0.14653565114906303,1.46837390850811,0.45250640176828916,1.0997803875120022,0.36931542165109327,0.18986330371185464,-0.34456833554844407,-0.31231327159402833,2,0.25,0
2.1465,0.6443068549181318,1.0786879222188592,0.8915202228768284,1.1710226598728894,0.9163256427228227,0.5242982918815272,0.5730866416265779,0.619875811480792,0.17391983091532523,1.5090721435401664,0.44956648289755025,1.1299608627785032,0.3285451699171064,-0.4711637258061967,-0.08313485811034341,-0.04328838963814507,2,0.25,0
2.2465,0.8343782205390696,0.74590597600294,0.8267766885130701,0.7919211828058015,0.9889298947305045,0.5075186910081858,0.9188417395173153,0.5262413078647032,0.6705212011010321,0.335454741333642,0.20449150488030285,0.0010209893710221552,0.6397878868130862,-0.39501121197262,1.0339026732430883,-0.3452241672062278,1,0.125,0
2.3465,0.6946243663814861,0.31011822645244624,0.5431546198675303,0.5217286645361051,0.5452267756435017,0.8553226880909212,0.8130102890512071,0.5660111193664861,-0.04233436837886716,-0.747225170464386,-0.40302545765444686,-0.4082587865333911,-0.5276521450953835,0.401688864319711,0.5398241333298475,-0.25875922325511086,0,0.0,0
2.4465,0.6442268477529998,0.3999843490972824,0.7142232295724136,0.9160201657988415,0.4772971780878571,0.9218832948662362,0.635345726572369,0.8206368961547398,-0.05433509171974627,-0.5853668657489621,0.0963139995900158,0.4718052796702772,-0.6569728616931277,0.7775715198307374,-0.06331910550072783,0.5864265524483633,1,0.125,0
2.5465,0.7168541291672109,0.428081288682897,0.806274052339969,0.892581328756276,0.636655097332741,0.8922919899158832,0.8134025987752486,0.8267156368178448,0.34848486234107606,-0.5566783545909925,0.5229631749600313,0.3731557598521571,-0.13591394314602864,0.7137563008420186,0.5447326725475948,0.49964273679002846,1,0.125,0
2.6465,0.6649798750005123,0.4042502691769768,0.6784046432263271,0.5203060048954843,0.6939165966658034,0.8806733971631967,0.716045640934312,0.542920605471373,0.25642998682853707,-0.5658491241118725,0.1538843851153778,-0.39522539128501755,0.04859750004588908,0.6411573334465188,0.3135236379446646,-0.4339518474176729,1,0.125,0
2.7465,0.7305251910278286,0.4972708391984187,0.5921299488256476,0.5362142189365722,0.5267912108453077,0.6273499102218938,0.5678735157872472,0.5288825576525927,0.4713166632905717,-0.15704240798603342,-0.1573626460072915,-0.49361029855754773,-0.7112275097589383,0.03410794077312389,-0.03559187499830303,-0.37698360266121644,0,0.0,0
2.8465,0.5418398428641127,0.5000691863981257,0.5124098998475095,0.7757875411233185,0.46591374702852256,0.5580635032259509,0.44571961744286204,0.6936454833581487,-0.14093762505333376,-0.0916842503612915,-0.4018332624047202,-0.04469370955964033,-0.9932053921247923,-0.26902405602835744,-0.37517298523540027,0.2210161927276343,0,0.0,0
2.9465,0.3517234201733071,0.4874100640107946,0.425942998030559,0.8524787669294824,0.6702177130111093,0.6309144183321265,0.6188775194197237,0.6503276504992228,-0.6743340973173898,-0.2091627679206834,-0.6319065424476193,0.35693426378878823,-0.1804599204989994,-0.019326993080605624,-0.14126535686708253,0.18331070996671028,0,0.0,0
3.0465,0.6106978375989167,0.6545666053561688,0.4719515121545232,0.6384255902700054,0.6016921614681257,0.7582017949364653,0.9376228229827093,0.6558214009122223,0.025786818296005903,0.25671336612971457,-0.5308320173961927,-0.05836985613907666,-0.3139019434413347,0.2892225830987562,0.7494270290116559,0.21868502063730733,0,0.0,0
3.1465,0.7245811000412028,0.5842200608421962,0.4709646786748622,0.4228489838233888,0.5340199219161502,0.7383648711163985,0.8294762657019389,0.8972128187617391,0.551745772462947,-0.07212074875761561,-0.526885760670434,-0.6467252319902793,-0.5349983749727085,0.1778500775623429,0.4496607796295911,0.7915512434298942,1,0.125,0
3.2465,0.6185994581513572,0.35571707093108407,1.0642884792949838,0.6709335032966034,0.42952146665815244,0.6718577304806865,0.3811805941315976,0.899189980243891,0.07123714867761052,-0.728224374175592,0.7254990045888259,-0.19065989839615965,-0.8048057977996254,0.20085640590038634,-0.5748258815616677,0.6477059175438051,2,0.25,0
3.3465,0.6618660891099377,0.8284673338065106,1.3805898872746243,0.8873902311378529,0.3595628517109759,0.6973520223369889,0.4235553237093546,0.6090155183350838,0.18865097271235703,0.5736177684464262,2.0715379696081326,0.41869474124330636,-0.9216431507280517,-0.04970227282856831,-0.5084376460207934,-0.21419796140948666,1,0.125,0
3.4465,0.7401110800500142,0.9767891477421556,1.1375908481428332,1.129536837698845,0.6219017886690439,0.7534431455678579,0.44008714920156966,0.5750083753870279,0.5174791794692155,1.4069765071101605,1.2419913429711436,1.0423497134361872,-0.3133886855285916,0.014390023101415168,-0.4917558060419021,-0.2167581338517496,3,0.375,0
3.5465,0.6822543628539482,0.7324712983410759,0.8097786060909908,1.2954239857647591,0.9435229727385241,0.7680942512621651,0.9832366681346268,0.5545113911676925,0.29402570645123377,0.5858101522527008,0.22804628513018155,1.6502192481741584,0.49462986525172864,0.3650809018189979,0.6654264174226797,-0.4207704684345219,1,0.125,0
3.6465,0.5949564898880216,1.1163899637702948,0.778246336975426,1.028961695493434,1.0368503936535411,0.7880743690489054,1.1251571271450251,0.8481095587880326,-0.09473571034358659,1.4806443601770045,0.23196028828628726,0.751081987127173,0.7791308450584808,0.4203744700232599,1.4208710322860492,0.25354103214163853,4,0.5,1
3.7465,0.7650585556256154,1.144089562819368,0.8358151129477381,0.8225657627688667,0.791629484004004,0.9042085197381351,0.7422820255874584,1.2361447499211686,0.4058050867198961,1.5773038801111252,0.4420500903434684,0.2864444826056464,0.08718073721346827,0.5346057446152164,0.4283782604584729,1.891551685601297,3,0.375,0
3.8465,0.9086318015735851,0.9249422651842568,0.9048504200447425,0.92489831952497,0.8253197522397661,1.1929292720273599,0.7747451295897388,1.01043935895346,0.9929988288619951,1.0127735766384607,0.6391501208248859,0.6464888223533738,0.061254730795127894,1.3849416026789867,0.44872522630485184,0.810376699289396,3,0.375,0
3.9465000000000003,2.1091772136913884,1.513041682503158,1.1570881319822486,1.2197396647213523,1.2280283929244444,2.5709890051374344,2.7230237779381614,2.6075005235902573,3.272195349714323,2.806356373343117,1.1511607143749254,1.139126055680141,1.108108988336933,4.95251152497905,4.4349085205498815,3.093714776937901,8,1.0,1
4.0465,2.981907694339914,2.073867540805352,1.325789322566126,1.7994075928159154,2.175092393369369,5.385152105631751,4.475910825579311,3.196431552645217,6.184751282383703,4.543279161181266,1.392132118158634,2.464674560285336,2.795237305429652,10.776811133032584,11.225283333241812,6.451652230607392,8,1.0,1
4.1465,3.083227119255383,2.9576981053992855,3.893073288485607,2.4903144187822654,3.599732331182662,7.123026281803545,5.211891922731988,2.371815657460239,6.793116483485198,7.077702135620276,6.406767242305324,4.426497091278822,6.770610828904507,15.288064723602918,13.528488438251145,5.06694087781705,8,1.0,1
4.2465,2.251597609392241,2.6634086806909183,5.026677765444944,4.964516717396742,4.868166647349713,6.871957144400156,4.837457540603148,2.0981751801626953,3.934625151065381,5.802702997543888,10.83819512366922,9.991497198814312,10.609489489935704,16.945639727037328,12.471071244888968,4.347748890608757,8,1.0,1
4.3465,1.0674524581350542,1.0218187725218069,3.5957679554019273,4.688568567629839,3.890929901591106,4.616360898981422,3.219047331830211,1.6733498403252758,1.3952390659220615,1.0813597064517568,6.945280802530139,8.53268718401134,6.317196943049381,9.77939006060138,7.282961237819446,2.6205625751810815,8,1.0,1
4.4465,1.2151727218245991,0.6846530933277096,1.6094616656514464,1.5371020076372242,1.4386517205604359,1.8570013149303457,1.8819126914534514,1.4909973751024197,1.80325339315696,0.31789827899922424,2.4781374957927182,2.171695505411153,1.4523522793061059,3.0732685390846397,3.533170244081837,2.30627444873259,7,0.875,1
4.5465,2.4586483205410468,2.605154672327567,1.9221805371018408,1.5865005454071153,2.20548536916822,2.3702221552532947,2.5676845851632515,2.7857585287159936,4.751477439257748,5.295206021109393,3.1442064893612742,2.3175529376027506,3.511564904353461,4.837027382617912,5.856324729986169,6.201454155484746,8,1.0,1
4.6465,2.6506940124186564,2.770390623866015,2.0519420222875855,1.6712114892975847,3.156930122450272,4.45041987386642,5.700803535212805,3.2352108578595313,5.567016609429833,6.368242205873052,3.591267082107127,2.5786121207195536,5.53932177232301,8.80468773776485,13.998116669893756,7.350403960026915,8,1.0,1
4.7465,1.868297967943755,1.6820589964189125,1.9238505359560116,2.8014148014936677,5.6335306880364975,9.380138202212196,6.7506809475621035,2.454277429172886,3.401277104332646,3.454257647208882,3.3532631795933465,4.535921629691234,10.280601524686581,20.464137683682594,17.123889737702108,4.559280770787526,8,1.0,1
4.8465,2.243366036858712,2.2188650037205018,2.0301506152278272,3.142247930158465,6.236855614908104,10.249199760131932,7.485326165612639,4.239922604889301,4.482471723279188,5.05307979698743,3.481168839119502,5.931261401335304,13.137140582272174,25.196221480723192,18.248911146643245,8.540104363403124,8,1.0,1
4.9465,3.1508282845320115,2.428192087809543,1.549896954383817,2.2245245786902137,4.04040762292326,6.664611356304055,8.250434946698027,5.492879550410171,7.265710784870185,6.007622762624794,2.009296531162893,3.850167877363417,7.771308268481946,16.197240587328643,22.019941610474305,14.409608183971622,8,1.0,1
5.0465,4.944526005432394,5.9624951782234925,6.744156265941432,5.599368576452233,7.821360818615742,14.715162471250611,8.690507681756124,4.852158922584556,12.249191110431493,14.690002443873606,11.349233812769233,9.848723883899032,15.223750936460949,35.64306880369091,21.147031770236023,12.735195014517508,8,1.0,1
5.1465,5.000462913771712,6.025188666319833,6.757926680736931,5.6055922406544045,8.116365105285062,15.276404612888237,8.14956294094878,3.947243592173053,12.109787613046892,14.912730555342934,11.27223434909317,10.065242842202037,17.17476500320389,40.02094941006215,18.237516970279128,9.07558812214335,8,1.0,1
5.2465,3.4692525334928552,2.8274062975718386,2.42786633379314,3.5039556473388527,6.884736059621103,14.682236158124455,9.187962291675674,3.739073970024545,7.822079451785735,6.773058106496723,3.7689082457822844,6.2399418870400485,13.828240707948906,37.1741813314812,24.35873406159598,8.492775474457629,8,1.0,1
5.3465,6.094933933628793,7.355352392735712,6.8503696912530145,7.716704198634389,14.03340469238083,21.928238020078886,13.36433713660923,8.290550491101394,14.12832113491495,18.5293198743672,13.559626082166568,15.583215537370261,30.224214034237143,57.20012955207959,37.893733256067314,20.149780434293394,8,1.0,1
5.4465,6.02943859316731,7.827340215316284,8.028913704159706,8.66277272906697,15.879001510184978,22.174544598995876,16.889587082363224,8.777245240403568,13.342785880156166,20.9860093373171,17.177443064903745,17.356605426577143,35.67774506779504,57.19942747170288,46.73567430424619,21.686092841849536,8,1.0,1
5.5465,3.7105542824406093,5.697014452625323,6.938151529692054,7.670518792452333,14.34445497939187,19.07960037626061,18.1944353034785,7.600025148079088,8.209731047532376,15.76774392078402,15.462456080112666,16.33062287725035,33.014334286591875,50.61165677526517,53.64291113018109,18.068647556096845,8,1.0,1
5.6465,5.728038192656223,6.119697513518253,7.529167240276304,8.825567320020989,16.644339207224675,17.136130808916146,13.97654216035281,9.09842155634239,14.069313584904826,17.73429705244962,18.308589221007374,21.25717891945732,39.59256269915828,44.92754599984554,39.33677035139189,24.467491628645035,8,1.0,1
5.7465,4.8217805419389,4.186761356302235,5.614073839607618,6.8439035093526135,12.959409492734583,11.41336677963509,6.050603659631656,6.473140092663438,8.552622739303143,9.08987184910634,10.040661828277935,12.758020514457597,23.133656997787075,23.501089211316366,12.791582444685687,13.097843465011003,8,1.0,1
5.8465,0.5697364775147925,0.9158386039620607,1.0624601032796437,2.0525868008573123,1.8475384663695842,2.100347565783912,1.6079213719278413,1.0169873670516898,-0.1501725019212626,0.9281507410089741,0.9446880847445501,3.158553683974915,2.681899741056768,4.101791837976571,2.5028281772559064,0.9291098056566303,6,0.75,1
5.9465,0.5672959120547277,0.9273114255584656,0.843426187824881,1.733806004176034,1.6130790571471179,1.5227791194909652,1.2704268296375698,0.945424860948847,-0.12087832217081497,0.9239260104896588,-0.034348860485321105,2.2601952713824005,1.851174844990785,2.0195113059463554,1.7063594945010094,0.664667596121799,5,0.625,1
6.0465,0.6691254634342911,1.166078007273226,0.593009890524364,1.0627980143831297,1.4163019077922498,1.3731962299095646,0.8075092792760716,0.957899879399081,0.1194475612663466,1.9155404183207116,-0.2829264813719941,1.087318943882964,1.5020242209930796,1.7924745392799095,0.7322975754745592,0.8763245153954301,5,0.625,1
6.1465,0.8972913761630122,0.9741387771632841,0.5987867598359534,1.0161546572942988,1.4936935033475203,1.3875873218688222,1.1011568114047154,0.8732907942800884,0.7348696004561662,1.0107594363200862,-0.22612956720009522,1.0089721854893183,2.0285645346401937,1.974034589484752,1.2109976619381833,0.6399172786508357,5,0.625,1
6.2465,0.8511283100253001,0.6526737399895091,0.8793703151908974,0.663756536292492,1.1771774518813365,0.7094768027222205,1.029105635337101,0.3910937223487985,0.7066034075680799,-0.014340976245446923,0.22243204733676045,-0.17588654583119875,1.2860708900644218,0.31449149181573727,0.8636091880780821,-0.6136569108138802,2,0.25,0
6.3465,0.6319325250603869,0.5638165749455708,1.0979606183243116,0.8512917403471915,1.6145944659699671,0.7439896460743972,0.5401242342107904,0.39714911000019565,0.19042902658278432,0.007315296242341212,0.8161876188874083,-0.4225590039408984,2.00178722799141,0.29106621728933263,-0.018593090178710893,-0.6542581630984192,2,0.25,0
6.4465,1.0243117396054886,1.1930571728347386,1.6304517304384356,2.7103751740760487,2.6795032778368757,1.2126211738961363,0.8652373268268154,1.084552904938004,0.9043429144337329,1.7634560169857494,1.857590139460878,4.024459759934935,4.610675439725558,1.2742064961514095,0.741296756934718,1.1107819753472048,7,0.875,1
6.5465,1.2042113451477212,2.2084535052564767,4.093588421495725,5.957700795029007,5.495212403132206,1.4422188306614783,0.8660810938412432,1.4036791978550858,1.5775774908952653,5.054751917660751,7.867225670436624,12.463020496521805,10.508657315977244,2.152069689343957,0.5193370502221399,2.2658433131122067,7,0.875,1
6.6465,1.068559009874125,2.3110804217335863,4.265687201432457,5.646708613381685,5.059862785763873,0.9978990567380662,0.7670719890149229,1.4347618304102094,1.3243244705057193,5.386051917901707,8.605796245292757,10.931264947196926,7.909442313471214,0.7438627416470971,0.4377398378804213,2.1473646459456055,7,0.875,1
6.7465,0.841831574795314,1.4429658513615762,2.528239255100868,2.6846153156788093,1.2403833999922178,0.848495503414168,0.7252884676991168,1.1263991136325597,0.5441906146691852,2.5049526732134995,4.911101201147095,5.441617586369737,1.4607946441376245,0.45248193361700517,0.4607752722636684,0.8901174877056787,6,0.75,1
6.8465,0.7870921948960339,1.1225832790507009,2.7751858843997206,4.289500761224919,2.7894742685258747,0.9648313371022093,0.8888803169764647,0.6110449349157617,0.38274954768998787,1.5017864983933495,5.291829762443006,8.849482065169962,4.732309700478515,0.8833021092877202,0.817055861316736,-0.2907909164298717,5,0.625,1
6.9465,0.7967225236190633,1.044898224010419,2.347099167702892,3.841495084470564,2.6609154299739677,0.7461017868866228,0.860731952177716,0.9630790098354236,0.40250884276456617,1.1653060463759286,3.354383629772228,6.031123881243446,3.8296845551442664,0.28312718973025425,0.6151481558965205,0.8858080840952586,5,0.625,1
7.0465,0.45701307765037186,0.611826169084549,0.9730716893092852,1.43584371836566,1.2906055251715944,0.5683209141412726,0.7961007613087814,0.9840235193471124,-0.5485166586630853,0.29234048926218276,0.7917586739338247,1.510875444217483,1.1438077270947016,-0.2203861247521032,0.46367771548296344,0.9545064854123106,3,0.375,0
7.1465,0.40965051226047416,0.7725921157575144,2.6144927693558713,3.5345710927343896,1.6373539818399818,0.6250619095369492,0.8333672023521861,0.9065336505110299,-0.6258545302483453,0.8024793528392329,4.222326653845565,6.374849473637017,2.352203906016226,-0.038712386224002554,0.6624490950189258,0.6038938250449668,4,0.5,1
7.2465,0.43731534073277845,0.7729355941177403,2.9362872779280442,3.8583191907520824,1.2839091087745569,0.5587023576494645,0.6047776452051933,0.8388008065080986,-0.5318103418258481,0.7643713355281636,5.285218698118014,6.99759431179345,1.4708480965345663,-0.2596230257276565,0.06847412405178349,0.47963999451239603,3,0.375,0
7.3465,0.36863571346399737,0.9839007243865088,1.530608635615289,2.3166324037572528,1.5706469112082548,0.8093925508005009,0.5435259030906846,0.7758637227361826,-0.6948526523492599,1.1635854981313931,1.2535041369314066,3.122658679451132,1.6210660584054357,0.18603346575369603,-0.09776673714096962,0.34486517780407844,4,0.5,1
7.4465,0.6490056781153704,1.2516356227341032,0.6107607285960689,1.3991349554555967,2.1877428374904953,1.1888199928147178,0.8372326312842848,0.8191492302896597,0.18099886201671697,2.1097251807820303,-0.14720779824943547,1.7564096565867546,3.542094374907805,1.347302355426149,0.5734489032396951,0.5385527196027308,4,0.5,1
7.5465,1.0087702709114652,1.4551009399782817,1.1959324439869652,1.3151112678339612,1.8880223248557562,1.341027218882006,0.9176144438106876,0.5456673186635663,1.3015863426982373,2.7166493266955936,1.1911543896646681,1.265340862895824,2.75265828088724,1.8728830320439709,0.9507689756745392,-0.3041555562250519,6,0.75,1
7.6465,0.9006000649303885,1.9347262637653715,4.4838358129007245,6.2255187716988205,2.635976306056501,2.0499679957783723,1.5445148671231168,0.7706058245735469,0.6571673164600349,3.71709035872513,7.210178643277859,9.208727516906853,4.239305355727187,3.4962923875714607,2.365627023835854,0.24477153075898442,7,0.875,1
7.7465,0.5490262402618591,1.935496265790484,5.395113979374164,7.703395945463269,4.730994910691385,1.9915748685824914,1.6460595008442032,0.9258648209687924,-0.22982110032802944,3.8517579864642504,10.834551201968296,15.569892063157184,9.531220720112934,3.1473779556655104,2.9218983028173344,0.8737109594231857,7,0.875,1
7.8465,0.4982599140935877,1.2210928985752374,3.5014309236781807,5.896526141653669,4.301035225689728,0.9814741457990549,0.8690023221404618,0.9776475025021693,-0.29228467707461936,1.8018358881382173,6.5580560751754975,12.14986454319075,7.583495862234287,0.8526668430841903,0.7818874663512372,0.916312781299214,6,0.75,1
7.9465,0.7315053493735197,0.6465642443402396,1.6210601515342156,3.9790102095408497,1.8382372062429277,0.6896285719756207,0.7599472018779904,1.0457043418737033,0.365313620763054,0.19808955504426579,2.120078948314882,6.914014005978049,2.7095906604896074,0.1370065142484077,0.48624936092837573,1.1957878954905687,4,0.5,1
8.0465,1.0958279051357207,1.1159523246237952,2.9181083861264954,6.042061160824947,3.2397735465314255,1.2617344958038517,0.8698181722712066,1.0004318011742201,1.5795346030257484,1.2449329282008044,4.254367511724015,11.328329305763093,5.798793284015694,1.6092946139118767,0.8315698763180169,0.9250805940583477,7,0.875,1
8.1465,2.10566718470952,3.60256284919588,5.5474942038702055,9.993322669139117,6.485635271893509,2.545914751831804,1.202879044713676,1.7159064681544012,4.035967086049276,7.247682881302361,11.645274336952015,23.29087352851127,14.214907509191987,5.350276714744738,1.7855526863791076,2.723603928110087,8,1.0,1
8.246500000000001,2.6981802142424764,5.193060202577216,8.16451458337429,10.573179349288914,7.763387905348438,2.5697527447393855,1.9924913254487766,2.372208114868407,5.488629886227191,14.569473697363742,19.17762435497681,26.308332760062843,18.492677661173982,5.407127937860566,4.175865052008136,4.708274682526248,8,1.0,1
8.346499999999999,2.0289196177347804,4.009535019975182,7.230266911838029,7.405583721065036,5.73265139600139,1.7308781669107718,1.8337996821692655,1.8849395725686438,2.899795550270603,9.893360137633206,15.87935605811795,16.480077534547387,12.045325553245505,3.0324342732857743,3.4782805999885444,2.614905121841611,8,1.0,1
8.4465,0.9906431533858951,1.633543041681184,3.365197292626053,3.3106324565842993,2.6863427510163236,1.525796263917106,1.973841820453172,0.6740829705941144,0.8230935834151036,3.2276741890150147,6.684777665898647,5.364584511816511,4.755421429962013,2.185577552905904,3.7007612752711485,-0.014525349579021163,7,0.875,1
8.5465,2.211601983954759,3.157224859043044,7.172528213329409,6.244691995152653,5.190073132232266,1.856261982432439,2.4119039509681035,1.2124849210865125,3.968203618246431,6.559672269380202,13.558252833583259,10.873493148125931,9.76732032324427,2.947850419800883,5.340425563399699,1.4462977697143362,8,1.0,1
8.6465,2.973755819559572,4.0729735040265025,7.759946940944909,6.578203567939191,5.985902484338027,2.571600728338923,6.945523650390335,2.2372235821310764,7.117309553843974,10.242620517996972,16.649853518771227,13.04348372842182,12.823626879119074,5.736964245236435,15.870097392231155,4.290198176952036,8,1.0,1
8.746500000000001,2.8698073942182765,3.3058196993053057,5.458607141226504,5.08713318573733,4.176233465912897,2.990376996327067,8.249550060832293,3.542088206992212,6.420934773409048,8.114369762145246,12.225373380393005,11.14250230394527,8.656699871211913,6.798060409287559,21.584451344218966,7.646290317487708,8,1.0,1
8.846499999999999,3.260709156406205,4.160990497425522,8.087440850219835,6.626942095027622,4.607811428845424,7.754234664186559,9.628322073372336,5.8671146032456996,7.16292897927317,10.349812648962555,19.038610800368176,15.466407569489272,9.511233924432208,16.669355634070197,24.058655037456393,14.686779724752139,8,1.0,1
8.9465,2.9259457226776058,4.2749586650645774,8.204570756713691,7.634125517544114,5.353895281251002,8.088545413694627,8.861870914841088,5.180759931298605,5.843511419193527,10.800534945866037,18.285511455152722,16.235075659653873,10.739535658740767,18.27103440395144,20.79810748126646,11.062102665760658,8,1.0,1
9.0465,1.8883721465676298,3.226855857823154,7.774485561243668,8.814865056267504,6.378778231264251,6.1611275106435,3.704749615307883,1.6666146506323631,3.2431799546730016,8.04293429403716,16.910937184706455,19.146946242683683,13.570748378503296,14.326392179626291,9.322545468224622,2.8975234092388873,8,1.0,1
9.1465,2.5667453748044933,4.883063628402284,8.797400743460438,8.205781468982192,8.17355551877147,7.938918859038373,4.462511834533989,2.8600794863824386,5.499743599472476,14.156988298324972,21.61212292032819,18.726873332374186,19.236677880158503,20.259231038013322,11.558751835026293,6.543164302739467,8,1.0,1
9.246500000000001,2.5502545454042624,4.8855228083640725,7.2482563687805435,5.714529979005074,6.808563818817869,6.919519238812385,6.599239021141921,3.865208593294663,5.273584295504586,13.884434139520922,16.697315856342488,12.002918893870442,13.249849837998433,16.574002829418085,16.661176591551246,9.484931407190402,8,1.0,1
9.346499999999999,1.8620159531381737,3.034711433555365,4.192475974875863,3.0446164417935093,3.046585989940824,4.473970753789907,6.143106444711245,3.973168862367899,2.814733540491225,7.237038777144505,7.603628381086038,4.428669763428412,4.810442388490078,9.86384930141849,14.300345766656305,8.25234510307645,8,1.0,1
9.4465,1.4353370297790935,2.090079601524048,3.1519100974929075,1.7111596553494206,2.490893821416316,2.8387239026161786,3.0291102679147586,2.7478984245123783,1.6711618583106445,5.046669377913524,6.479222025561897,2.518516615470484,4.45949854177927,4.803769833978153,5.477318566726379,3.024048867435252,8,1.0,1
9.5465,0.9048264418304849,1.4434414173570993,3.175282604246276,1.583146823523697,2.538430162340418,1.255517648362288,1.4567464716373002,0.479376040231342,0.5718140915086649,2.6654243163764137,6.8253835773311105,1.7750118350324902,4.501820583778887,1.8219835844390826,2.5644755641949013,-0.6641912437078977,7,0.875,1
9.6465,1.1357952594606824,0.7990470465763337,1.9003080915506585,1.0891423349672102,2.04792155360555,1.1033821469348417,1.3304876152063865,1.3187889642337518,1.0700058925926783,0.885756887842488,3.3729517521553474,0.838872457211974,3.0092331260652863,1.1560401258656994,2.213805068837263,1.6278469157034372,7,0.875,1
9.746500000000001,1.2667606236665618,2.593758919277991,5.954533767026406,3.1594003942740665,1.755100658405314,1.3015450053105628,1.380838619423704,1.8397179805324022,1.4971035606455017,4.835454558361589,10.033340704920981,5.556346891050326,1.9968408377865856,1.4073200546973976,1.9169778722156685,3.20228036494297,8,1.0,1
9.846499999999999,1.43502342623942,2.8192334367224157,6.65344270695862,3.660878535512196,2.4049325253672498,1.292834080251928,1.7183145243471567,1.5687337494995557,2.0951375974913744,5.863178861269449,13.37149524142171,6.826411906593555,3.857908043021659,1.3681189869360963,3.203028223543329,2.054321120165361,8,1.0,1
9.9465,1.1811561565159157,1.36667528485862,3.2444897495118474,2.245252459249435,2.066620951846778,0.6818994727012772,1.2508541720873814,1.17272861382435,1.2704472438430843,1.8672541285751398,4.620024047105432,2.923588925400303,3.024350196660506,0.21355572975488446,1.5480858484699,1.2966075961168204,7,0.875,1
10.0465,0.5078896498723546,0.8154483288707651,1.8052060161842722,1.583388758899402,1.5650437221214673,0.8542235597909902,1.0630422232716559,1.0550697117503565,-0.24909118143896047,0.8694146372668308,2.0231342667411636,2.0617363520304237,1.5177439015192338,0.7146102440613896,1.203354496852579,1.1152970458679565,4,0.5,1
10.1465,1.7987053665143382,1.8906430538673933,3.6025397621756796,3.1359594544748863,2.7929757849571315,1.614815748453209,1.2765494669521484,1.1337116769395612,2.230700084504448,3.3299002140764755,6.511385866261926,5.419020700957252,4.5594494014032465,2.3746071508618916,2.1749586490995974,1.3192745797782715,8,1.0,1
10.246500000000001,2.163120900839782,2.2371308641666667,4.275292335739964,3.70673474095343,3.0535034048046983,2.020221006572328,1.7924962768182549,1.2046983538174776,3.8206494701477642,4.557818496930092,8.67133757654442,6.5239773559279275,5.443976589920798,3.679950001074939,3.073601266084221,1.4461079522863813,8,1.0,1
10.346499999999999,1.7617852854869653,2.0661858445418124,3.1564792626793694,2.965439482715176,1.9723941934218818,2.534887770151921,2.132879574265674,1.7822160704863665,3.1140198576018183,4.4003323699203145,5.799676941755847,4.64038107029544,2.446496576816167,4.170624817494486,4.698143134807502,3.0445118305062184,8,1.0,1
10.4465,2.3378331546721087,2.9690522499748813,3.9066981110118237,2.6572012849552267,2.6420427659380326,5.910558765414551,5.482340766176091,3.4249365184532987,5.020202946691115,7.40971520675803,7.357453491510317,4.834288351848706,4.240476042129882,12.257766133430195,12.439496699172846,8.125058192026733,8,1.0,1
10.5465,2.66404670151774,2.9244802703009087,4.253790044241054,3.20385477135053,3.7070569790419046,6.691438622022652,5.989797251081868,3.4964838567519205,5.627458492751408,6.851232477685773,8.45880463513744,6.342316831360169,7.475050578269836,15.72047313801271,15.312046169147555,7.477414203769841,8,1.0,1
10.6465,2.101499221914701,1.6476885344671586,3.607049298470643,4.475799955925154,4.196450908158603,7.1771654153472415,6.7250340847412025,3.101816920363316,3.786345606567841,2.7293689294774333,6.266437786112481,9.310774121611466,8.021659963697955,17.817375971639763,16.8460524736249,6.54107593203414,8,1.0,1
10.746500000000001,4.212258638066225,2.2361677236402566,3.7928735168453542,5.438227595212373,6.0129992513969786,11.66229771007095,10.942098467459363,5.164847026889535,8.895552038931854,4.437523912128807,6.771423121890583,12.16237598359992,11.695076568403815,31.24106651573022,29.414398521520994,13.359650240035938,8,1.0,1
10.846499999999999,4.958122639203864,3.100171075312484,3.4557347849405198,8.040868007080716,10.009802707446624,15.88934194726957,15.261826136833632,6.744644326389576,11.415335034331019,7.304110177764726,6.957521296779349,17.739142561987855,21.3718571564979,43.108494893024606,44.129095954746575,17.17549405223321,8,1.0,1
10.9465,5.092893139793278,4.182908150689349,5.027639019527855,9.73104162164913,11.969433332934912,17.651611003039157,18.859545036103363,7.906610097795897,11.847484769361577,10.586230298335796,9.850577219589862,21.134777318161927,24.9982461952162,44.11601429802125,56.38179550556372,19.605767832893058,8,1.0,1
11.0465,5.801821988006304,5.768257462321798,8.322910187806148,13.6356612634134,15.32651766785743,19.323610142817607,17.73116658683958,7.922080269556128,13.76334261295791,14.627975364273208,15.893650530038094,27.821100218608454,34.0767958832449,52.108185660951776,52.895969910598694,21.879475021828906,8,1.0,1
11.1465,5.466095215192908,5.883770126062155,7.872122697415699,12.528406128583818,14.205801407556685,19.546593404089254,12.233688208439748,6.040375665622066,12.088608372214905,14.676805951977665,14.71907180024321,24.000805842148438,32.376746664894014,57.41390401507566,35.34568182962383,16.46917020495246,8,1.0,1
11.246500000000001,5.319505102551161,4.637644616766566,4.195774895213278,5.691708463771909,6.647199687450886,13.493425913721595,9.816916816281829,6.0964430553516165,11.958030220962941,11.834993831909118,8.128709939889937,11.29357565835026,13.7019310109409,31.40160943908677,28.54926333229303,16.05574741580452,8,1.0,1
11.346499999999999,4.9155106359190786,3.322965253693847,2.836339070830135,4.776553010110151,4.330123183097048,7.024006750163244,10.438856333643013,7.266792359728504,10.266250706767496,7.880620198999866,4.716499935104975,9.144550317050044,8.737727064525727,15.13805494337404,29.44995827924342,19.11962204876369,8,1.0,1
11.4465,3.208663193253303,1.8171059074786908,1.7653449615219619,2.993686028841207,3.4055806848777626,5.955956219101613,7.693465796886077,5.6802861385765695,4.8234200343958635,2.980364003432382,2.4308588664847606,5.495883599721228,5.391626946567155,10.439263164360495,17.90773699578287,12.953711116518859,8,1.0,1
11.5465,0.9010657360727283,0.6890781257751806,1.2139060345074104,1.8256001942651308,1.5622272612344303,1.706328106451162,3.0592596571382886,2.5202571610875864,0.9542660869533137,0.48654091785005704,1.6291037007750528,2.778475998938576,2.100657238322958,2.5295048083875504,7.183348743569537,4.897591463575895,7,0.875,1
11.6465,1.0034138929750085,0.6483808961317832,1.1258288321922805,1.2755642105522467,1.2443507692991422,1.2892961194174157,1.7957485138698468,1.115576024279819,1.3038691610349997,0.2849492209599002,1.2381632348160823,0.7303605209672606,0.9622753105281054,1.6960038801443214,2.7075119665144536,1.5139706697737503,7,0.875,1
11.746500000000001,0.8673758369327562,0.8295225620511905,0.8030059651274466,0.35419517457112293,0.5147986259906905,0.6866624317732287,1.0620473074771408,0.9236375319253062,0.7230481063618739,0.7514420263758046,0.3159723307736353,-0.9237946438158966,-0.49303490089839735,0.14223295638556083,1.0060449668079623,0.9141822814185493,2,0.25,0
11.846499999999999,0.5399336403407586,1.0030764411373814,0.559284221588592,0.948973914819339,0.48297566259185887,0.7949721742203456,1.0771959083411673,0.7267351307915807,-0.21242074712540882,1.3459694699090077,-0.23322574755288186,0.3397920474821945,-0.539031202906971,0.21641144165267967,1.0666446942090402,0.30909315945695587,2,0.25,0
11.9465,0.3828072468752662,0.6914055804127875,0.8471974595859366,1.1366100766350453,0.4019418792915416,0.8770905065697614,0.6240069137722558,0.5912819355701664,-0.5468244797319189,0.13559897792661726,0.5088496419994851,1.3435816333933517,-0.6738507535423074,0.5442054734770191,0.06540504498560785,-0.138148628019582,2,0.25,0
12.0465,0.47563136243287985,0.7250348733694446,0.9266289723964457,0.8688180301884825,0.4717664157095249,0.6370402579222548,0.6657772862982217,0.5405811392679194,-0.23562737146452506,0.47254824028299297,0.818231720619477,0.6680931613485825,-0.595203547202434,0.011016287368721924,0.19224153781748146,-0.2886534935249101,0,0.0,0
12.1465,0.696056595343977,0.9995503396041439,1.0014780978420108,0.666215113186825,0.6831449838547768,0.5708405277951849,0.7241887803795257,0.5543289607879255,0.4235818323025067,1.461509308118754,1.0031106895349557,-0.0029677973808630263,-0.09515474778348826,-0.2326754806334715,0.48181737861766344,-0.28718145353179014,2,0.25,0
12.246500000000001,0.7831358413083108,0.9216206955414444,1.0914701797895487,0.5217046044634309,0.8878979292651851,0.9124690399052142,0.7411685831215221,0.7007735752867934,0.6680729312061477,1.0417261892021143,1.0720756971550156,-0.34755027659458376,0.4072644037468397,0.5223527533623538,0.4618689940187105,0.05901158313742006,2,0.25,0
12.346499999999999,0.8388200518202762,0.8625832130008795,0.9198136579539465,0.5000940715453872,0.7606859485913274,1.0790736074502338,0.9098568541542746,0.6334330406030712,0.7480509992384021,0.8358850032350063,0.5049753577464441,-0.42665343764161373,-0.068353092482115,1.0435321264176873,0.9200345378445359,-0.15406947664676482,2,0.25,0
12.4465,0.848200553302805,0.7929393237073792,0.6528459406256639,0.5026920057913351,0.4218209539371441,1.0177572633898753,0.7826757472412937,0.587137240178557,0.7506421146682054,0.7073739183601659,-0.22304137228390508,-0.4692698681417376,-0.8421366043230659,1.0183460983386197,0.42541640249604273,-0.1813065354025326,2,0.25,0
12.5465,0.7066177231503995,0.6934016721296957,0.6911087051950121,0.6136543471271932,0.41137303107593554,1.162353479087575,0.8571289111350284,1.1073151563570194,0.42976892029849767,0.530867516710249,-0.022330680799889008,-0.1284560922293167,-0.8880150266507578,1.4440171290906851,0.42830009976040984,1.4087603429998399,2,0.25,0
12.6465,1.211260342342652,1.9844518064130887,2.68660901028877,1.8358689480612944,2.0210455272493215,1.2129103161287038,2.335140807678469,1.6958327244832445,1.4668723660881327,3.6641218921266585,3.9411569674986118,2.4555727014517137,2.0733058109247122,1.4950450039974756,4.619352363756827,2.8560358896973708,8,1.0,1
12.746500000000001,1.265864501081305,2.1777833369611868,3.4005367948910785,1.8932335776544007,2.102807121786489,0.9920021345677633,3.855046042900972,2.154665363603772,1.6617969335681633,4.629121567524771,6.598163608823361,2.786597643696085,2.6932334963609477,0.9083190944668671,9.416966117960527,3.730300238937322,8,1.0,1
12.846499999999999,1.7356047259151983,1.375353703580374,2.448261208524469,0.970443939591297,1.5897552518757114,2.1063146522023146,4.877585613489529,2.275621801827679,2.9963875348504896,2.1008705411285975,4.13352193570937,0.8294953404854397,1.5830643353506388,2.9799453691924485,12.571047320312145,4.744032399668803,7,0.875,1
12.9465,2.545548772551414,1.8520534231529606,1.5960104978463154,1.1222246362487998,1.6726215843127163,2.8645875766209166,3.9836227491154377,3.0156137517929524,5.764498057821288,3.0914909134478825,2.21278926781358,1.1755576580838143,1.957559529420804,5.431298299856245,8.959261473076001,7.189486941656043,8,1.0,1
13.0465,2.7123360996277457,2.0521820352612705,1.4474386053152621,1.2886050834270888,1.6153108739723654,2.672060576735991,3.048868945560384,2.901578859634634,5.872614590772347,4.187422039627254,1.9352304123701722,1.7431071226631376,2.196866818990869,5.310312038304914,6.178012065490078,6.26142173629844,8,1.0,1
13.1465,3.5800270501883382,3.0318939123084583,3.7414664446343826,2.623828877695214,2.9841682635859796,2.5921979120608256,4.260958526353631,3.1566722703852346,7.54854394167577,7.052152678961607,5.991355560671456,4.480522490053869,5.5145666929495345,5.322816191426829,10.05419173741969,6.513655854398291,8,1.0,1
13.246500000000001,4.585616913085365,3.699190882862655,4.354880552434277,3.6904781430825797,4.689648958049955,7.960786659469772,6.693580247779592,4.387477727823443,10.232456771711053,9.786854054766167,8.756683128589456,7.120738412242216,9.956873668526041,17.274350621021323,16.936534040788768,10.488893395629116,8,1.0,1
13.346499999999999,4.706066995183718,3.270637976207463,5.2164622151206945,4.711357367956271,6.118194370706325,8.547494299007532,6.924163105598136,4.041969790492163,10.851768410925754,8.473905946483336,11.131909057327489,9.82824497884041,13.892657316833061,21.240144464302126,18.500690610877918,9.14894567551676,8,1.0,1
13.4465,3.9453809133673468,2.927431788516589,5.706405778334577,4.098125826913792,4.837421453167232,5.574384116445713,6.0381906916024315,3.000549132872806,8.618128384863624,7.431777077908838,12.65282705075183,7.801450747572964,8.516625462940569,15.109924681992512,16.767959974850577,5.930053482672023,8,1.0,1
13.5465,3.5584122515287087,3.330188980445621,4.675625038957626,2.527759107670928,2.306921764900755,5.86774801994205,8.917282162820806,3.798136753747965,7.879184226058405,8.441757737494683,9.597348987795185,4.49258445302297,2.83970157467069,15.257017100245635,25.72799306283534,8.582981981271553,8,1.0,1
13.6465,7.637938805748087,6.5034086941914655,6.6670415948140604,5.599802681463222,7.175088621839173,11.63204170289364,10.423070808280164,8.385265265737118,16.777409444468987,16.348994821328247,13.87048178782247,11.149602019240977,13.408083297886947,28.166625407765565,30.275478550195434,20.662356941095453,8,1.0,1
13.746500000000001,7.381628689395684,6.1619675898207955,6.2569723379342905,5.994715486555689,8.41962822050024,12.858778883883813,11.107042619221659,8.642206721172444,14.931931349974489,14.152766565429353,12.101731434120447,12.171653733633955,18.28143293669913,32.411074118611964,30.68573593162172,21.378578235233057,8,1.0,1
13.846499999999999,3.5500349081485263,3.1414352117282296,4.371679595306279,3.9961565784145296,6.914957171538172,10.5533540921309,9.699718211397652,4.508350382201349,7.452489079173713,6.625741246869905,7.202576005477952,7.047229481906125,14.134913390534507,27.06228389896655,26.1713853178612,10.322032828347718,8,1.0,1
13.9465,4.739840696432981,4.0958494779550625,5.002150136047875,3.6390288449316603,6.481707291477831,9.950886270339677,5.270646330367949,3.2217071637503376,11.29008551546586,9.736589467163535,9.643736001458416,6.211911677588598,12.470705977575847,24.33233235258915,13.6201407930872,7.155790134969186,8,1.0,1
14.0465,4.323539607512555,3.6144440493630405,3.95834097925667,2.5498333731916865,4.352136347533846,6.511287121943065,3.1464934096163395,2.797383095089066,10.854376865432878,8.951097260666254,7.982325533555731,3.3166357730402978,6.255620060572272,12.25702931007718,7.114568212635243,5.864938945010148,8,1.0,1
14.1465,2.8282992171206542,2.266454164065601,2.658281600310415,2.05408048778828,1.819047256422396,3.880944475235759,3.1780740589564127,2.261181166199624,6.549921339706758,4.70918760927083,4.931749012139192,2.978484540253748,2.4872024921900517,7.63954812766497,6.803113729997836,4.386052347588525,8,1.0,1
14.246500000000001,1.9848423014307044,1.6217325996451235,2.0888283264192467,2.122883324060126,2.363800655117257,4.140356904529107,3.4484537954137506,2.0092869015243853,3.2399842659679567,2.5096534911087063,3.1511556876996347,3.255553422382714,3.4868139456176537,8.26543270164453,7.562271810276058,3.6270504267472012,8,1.0,1
14.346499999999999,1.1057526696820914,1.0966231200220489,1.302618805378707,0.9418248375145541,1.9573035786583015,3.2692264774255837,2.6296547190657855,1.378584573697269,0.6305452532204601,1.507910870715746,0.7130548742493856,0.24468965991033303,2.2795591051267756,5.0439157176469465,4.81196052331928,1.5793249947383599,7,0.875,1
14.4465,0.6280417530585038,0.8043553806862512,0.48317483388579135,0.5858420489889089,0.976523015976075,1.5687517155647883,1.11051886004922,0.8552489726492924,0.05822513212734269,0.8610113189901547,-0.42696477482060907,-0.1970170904624661,0.4846768270272805,2.1148309628833104,1.5873319756805027,0.5975971327076545,2,0.25,0
14.5465,0.6455749288286152,0.7174110242519856,0.448743208094616,0.7820266058407133,0.8207963868705475,1.5293060963023701,0.7402558299165405,0.9570991280508603,0.12076498747680876,0.5933276997536174,-0.44177773772273193,0.36866067264507185,0.12240199789527786,2.191533158763293,0.50699801038644,0.9327054267770306,2,0.25,0
14.6465,0.4714406647148853,0.7140817270159396,0.5039182987779978,0.754201312576839,1.0653997999294396,1.1381763704564511,0.9378479498010481,0.9176117519865034,-0.3536584711518321,0.5373602120177009,-0.342179189026167,0.17458653360875964,0.628381675376666,1.6142116440346297,0.8876429786561074,0.8596812998022503,3,0.375,0
14.746500000000001,0.4311234688544265,0.6909033795849333,1.005512815184576,0.7664434901357579,1.0450182821707592,1.1722141361226763,0.9825194931845118,0.6858960370329401,-0.43362587119016033,0.34521249970583684,0.7919889879232426,0.1777113970197192,0.5771852344489585,1.6651921631439222,0.9780272261003722,-0.0616467167610394,3,0.375,0
14.846499999999999,0.43094332653740314,0.7797202022140295,1.257758147827258,0.6600108026582652,0.6684782351183008,0.8672922980526879,0.6535372085009762,0.6643129592825506,-0.353021131999155,0.8018788285354859,1.4826943725908865,-0.20965608837431987,-0.09669673775157857,0.6227148995569782,0.14930467293567232,-0.3290019596774125,1,0.125,0
14.9465,0.5832960931365219,0.9744499527394642,1.2183532265641337,0.41571651695719014,0.7340963226721013,0.5167652091373587,0.49312376403861513,0.7173641206065436,0.02668831975575041,1.3970482364647359,1.2953556380056694,-0.7162714630448537,0.15030141201700573,-0.28095756119657667,-0.3203418870885521,-0.12664785308165052,2,0.25,0
15.0465,0.5846236489381735,0.8434934383767219,1.1400015990242123,0.6984140187266915,0.8346712089342694,0.6429149520586496,0.5085540775311432,0.8675357993672642,-0.06402524268502108,0.8194541490975117,1.1974602071814449,-0.02274635269751339,0.43873776071010256,0.02831285446774068,-0.2499006266114078,0.23831386545562364,1,0.125,0
15.1465,0.6183387330442163,1.082979444228242,1.588663239638451,1.7513598748406525,1.660474523578537,0.6539952981153098,0.8858373179267796,0.996849608343884,0.06850865378467418,1.554822048634363,2.2919962285009703,2.462302894126378,1.9003741651403927,0.10650653369811983,0.6477911173876204,0.7616428432337763,5,0.625,1
15.246500000000001,1.0453581743094944,1.6317271831380535,3.2813034421132405,2.095869517700005,1.8545906680269857,1.09928487465225,1.629771530464377,1.0538381871722189,1.3238636529940309,3.702619698226142,6.645526163269961,3.716221105495154,2.2868811139332825,0.9524963590398255,2.563458607156989,1.0042958943355318,8,1.0,1
15.346499999999999,1.6252177865737227,2.0132141929951497,3.4934586091183637,2.365530613568582,1.5534140831505672,1.6111935088120102,4.859954241809243,1.3700949256690533,2.7227310409700727,4.873209718077036,7.374068558427389,3.46293543657755,1.7568564762244072,2.79051383253548,9.999202157395374,2.166496720051187,8,1.0,1
15.4465,1.8795942935788534,1.8570508336164409,2.386131694525966,2.8750412260292495,1.5044055432469885,1.9144867119426183,5.081458436910501,1.9288869907075552,2.791003826690194,3.9805053986090058,4.425550073609481,4.411256299078596,1.958317903827911,3.5566372355496356,10.808301380578722,3.615864729798373,8,1.0,1
15.5465,3.069911825183935,1.953766710486007,3.5870066418590767,4.052774247905836,3.1218445880955557,1.8529479747526802,4.676144310545325,2.397219153327202,4.99288905178219,3.9238081636468145,6.449582218720232,7.146683616418363,4.884874672579502,3.1841721573525166,10.813580758135549,4.316470481762675,8,1.0,1
15.6465,2.980795009080885,2.4785159217342905,5.1970850768415975,4.239276666174043,3.642565683510282,1.416555120771073,5.452239691284265,2.821096906066918,4.906916223572903,5.851071831861767,11.408871775200542,8.318739854013563,6.957421238929945,2.036702321351866,13.73326443687106,6.128176365180004,8,1.0,1
15.746500000000001,1.4476953638755412,2.816240251137315,6.018449963746146,4.0100582954895545,3.423446605604803,2.746202870916961,4.4183156669564925,2.289543580141717,2.040579420759973,7.3547799842378945,14.226705815158196,8.438397186968487,6.777161414639468,5.1011750985299535,10.82773843332272,4.399018837859544,8,1.0,1
15.846499999999999,2.618018824978826,2.5448678046924122,4.778673885459733,3.508850932369732,3.094061820411234,3.2002579975994285,5.851578602412789,1.3920745078890715,5.271819725444102,6.048266502114783,9.558343730250284,6.614540327839149,5.855983471229194,7.189209441831237,15.28847286089886,1.752812940717964,8,1.0,1
15.9465,3.150343618430908,2.591637889385624,2.881781211202762,3.1746480110663784,3.3485046714826407,4.472204507289158,5.856318196456736,2.6852926117485185,7.603746046237403,5.756768163371793,5.383678930959666,5.96331322202976,6.313502918573996,10.168785627267994,15.434578061662183,5.600532811209392,8,1.0,1
16.0465,3.0934874151303524,2.3429788093458535,2.810573970341723,3.227516468459358,3.7286551048065633,5.770150029305948,5.781457030925758,3.4796075614417146,6.796766072267965,4.848329427125487,4.996827959571595,5.661222195951718,7.322917486888446,14.881900542869397,13.58731320552804,8.2936030787284,8,1.0,1
16.1465,3.0023135468566444,2.4678742473606667,2.651861381143995,2.3578542292047366,3.312419854140824,6.331837968850479,7.141565715683228,3.530681737654909,6.237348150616885,5.37464828663982,5.163719589557405,3.5804335849516895,6.435990756899271,17.217137414620467,16.288057659253003,8.370604809728569,8,1.0,1
16.246499999999997,2.5760605298327497,2.823683213687468,3.322302749795592,2.820096239063556,4.374049162678722,6.453680826892799,6.324202927661356,3.2135602876331975,5.638571816916832,7.28693916869644,7.106459181209508,5.192124551732958,8.836762201605769,15.512667429988149,14.865532420215587,7.4381656137546255,8,1.0,1
16.3465,2.4346976619967564,2.7999156113039145,4.254127764201056,3.0768261080975288,4.631394400455177,6.206370143256668,5.818665280145055,3.460910708186738,5.362554923749709,6.642091781669168,8.925261320601743,5.948611796372478,9.57248148050712,13.36106243705296,14.35115444912117,8.12489428694986,8,1.0,1
16.4465,3.1740527154270795,3.642037514282626,5.046270474079246,3.8084049054855598,4.551204115084965,5.643207203525621,5.840168526695054,3.3060596541222385,6.7293931541573455,8.907103406660811,10.918163545857102,7.343495177036521,9.556557068887447,13.547586028711448,14.610225284387086,7.626512157020529,8,1.0,1
16.5465,4.728452660143146,4.670451381808356,5.397286940989127,3.7392527140877405,4.242151878922326,7.17793467549129,8.528336203034844,4.524699073948294,11.113618238595796,12.801378459342752,12.150446831050106,7.408020393121384,8.423928907657064,15.989528414996057,20.85554647897128,10.058771949834753,8,1.0,1
16.6465,3.967191440443639,3.7960008106932794,3.95323363445037,2.325927117171698,2.4292376726955656,6.4626148877591305,7.637765561384297,4.190816557460362,7.500048085249538,8.21231621968838,6.861485215430247,4.083403485512689,3.1649155968628033,11.79100172842445,14.795366945545855,7.613832596844474,8,1.0,1
16.746499999999997,1.6462911690559152,1.5183279284388909,1.868831190036213,1.9104592028605352,1.1702004944056064,2.1993663678539495,3.7059415912503533,1.2451044690314494,2.69554153431173,2.8303851919729373,2.974141647656205,3.1066298543251083,1.0781753139272885,4.38636581034064,6.8379024527537045,1.768277498075992,8,1.0,1
16.8465,1.8774511101827418,1.9762892007212207,2.323464148699042,1.8131620443078773,1.4316917473161992,2.243146373633297,4.8073592722477265,1.455602684575744,3.7397024812647253,4.431577966252217,4.359433387096356,2.7924514646845764,1.9138270959448533,4.493735072083688,11.374275841400149,2.5019208184533,8,1.0,1
16.9465,1.6784862152569597,2.4748161862560694,2.2906969476953734,1.9882877511662995,1.3899923721391363,1.613539567598629,3.7325393613499234,2.023351126145307,3.1871452883037104,5.849722745667365,3.9155916256620618,3.1839535500851097,1.7010113712024242,2.371726929037836,8.393871535575402,3.5222409915769366,8,1.0,1
17.0465,1.2551824708841908,2.1483336185508572,1.7865090574476166,1.8137659744954122,1.7347532103348178,0.9187852703485464,2.444568090231933,1.8180076861951706,1.833045605539908,4.602195836042407,2.346400766033332,2.4632918097737164,2.6266795208273637,0.6097684204551946,4.7889845341408614,2.185806573871994,8,1.0,1
17.1465,0.6387273394388706,0.8875742879190821,1.0526978066038557,0.8200026147468333,1.7220545097832707,0.801569297650195,1.8091449087228069,1.0785925858255225,0.29577597568051894,0.9335022140631848,1.140878566423928,0.4622872412705005,2.4404078514174103,0.46238017836094586,3.196070537037968,0.5863973676027313,4,0.5,1
17.246499999999997,0.4209872430323719,0.47815145032197864,1.0407246930960756,0.6993471328954942,1.1451149096032078,0.9102497120531745,1.3063915234035528,1.1838461267885252,-0.2675943112177587,-0.190520974213817,1.0548251078110753,0.12926407363336215,0.7728154213112012,0.8089941928653304,1.9412053657760309,1.0148064775299148,5,0.625,1
17.3465,0.736165981807749,0.6496123013169479,0.7621926996905888,0.5568618446246367,0.8348729624886586,0.7342078648030868,0.8662164386699998,0.8170402155064646,0.34054732481822547,0.30989596551031107,0.32476240527638645,-0.28747288214660105,0.28766260764690865,0.14418325472673865,0.48330547699770404,0.4014673116091142,0,0.0,0
17.4465,0.750134621046855,0.9215200222214712,0.5333635257282437,0.666690843455843,0.6045777519160942,0.5788622162106036,0.633361476235588,0.638160897331364,0.41071748973540406,1.2648604421409084,-0.3391468995649508,0.016764623638271126,-0.30713316370259724,-0.11308821028342528,0.025418584090930247,-0.15483621207786957,0,0.0,0
17.5465,0.8106571870592283,0.9019807978794911,0.3544505186280074,0.579955346040354,0.5241681536874947,0.5729574889376853,0.73558758980168,0.5975623713520574,0.49354702702078795,1.1747094834337606,-0.732068654361443,-0.2589744128866892,-0.4934478507998229,-0.07124393198665355,0.4543048769295932,-0.3499293333743737,0,0.0,0
17.6465,1.0191370286644381,0.8810936885115594,0.43376719977994627,0.45707737359780876,0.6939225310591008,0.4052058463337368,0.7216831712184565,0.6992764673571445,1.1889736844186474,1.0548315452110215,-0.5480230310847642,-0.5070499547596142,-0.08776273771189025,-0.5952009841424221,0.4877570526308997,0.10739138001412081,1,0.125,0
17.746499999999997,0.8436097897271606,0.9390223496344391,0.5051476199890809,0.4358836138122095,0.851015783437527,0.4132134642556149,0.6098569037603416,0.4852380449657756,0.6433046263173656,1.397873473050964,-0.3392021514776755,-0.6479463173068232,0.36961749324573695,-0.6599347604161657,0.04150015564115998,-0.4804271051622209,1,0.125,0
17.8465,1.008573215917862,0.7142686169972212,0.831385281564571,0.40982704519233376,0.7597134447717001,0.8343098873313051,0.6503688981630275,0.6757161774872574,0.952454417535767,0.6174555025968246,0.36251970559143565,-0.6992381182951185,0.12718178376605122,0.32191512440713516,0.011578803252799056,-0.056604027088644024,1,0.125,0
17.9465,1.0127054789662409,1.1955768515210632,0.8911535769928612,0.49538931122372504,0.7821929110759788,0.9957426386684597,1.1889923701473701,1.0222902296181595,0.9974535118532957,1.878848808759919,0.46919272292130537,-0.4335215483830646,0.05596915357967919,0.9560480026791631,1.673574381276263,1.0596226561781645,5,0.625,1
18.0465,0.7006000935410897,1.5486126484771632,1.1910237120334648,0.8429372528381788,0.8790272081023964,0.8066073754974223,1.710307055830908,1.1152006057891637,0.21416412599555332,3.13451601205436,1.2218798090400371,0.32335327503657746,0.41235671818034547,0.46898255308512043,3.3892747195813437,1.383154887271516,4,0.5,1
18.1465,0.7079041432179971,1.4830890037868967,1.339232589975105,1.0214103704736741,1.2674167994076613,2.1002982323012622,3.203173020525128,1.7806016552367234,0.23001290088529575,2.6631565846225493,1.859682843504643,0.8754457458263222,1.2498900519299199,3.39541212596683,7.136684877237482,3.1160834436927463,6,0.75,1
18.246499999999997,1.4477695811385876,1.918094808579435,0.9980178987177452,1.0060674960411087,1.7488431886002036,3.002032993052177,4.899535726325136,2.8266245826471215,2.1546233900837395,4.248728395388652,1.0245883262941167,0.7631506622603603,2.688867379196533,6.858399902936529,12.507875458099004,6.273317252338777,7,0.875,1
18.3465,2.727840839217795,1.9737675956135372,1.5652691828690506,1.5934527067284618,2.5505081572016053,3.5124260839599564,7.023423091192922,3.1303069594823363,5.6587078247811675,4.407979854625537,1.913147370270081,2.2824893653495524,4.583774665114396,8.222281367648044,19.404799367096288,7.494399439223371,8,1.0,1
18.4465,6.077432028109682,4.773187603213742,4.630317829241173,4.257074663310793,3.806334239867813,3.773030845251231,6.595955380197931,4.584932350789316,13.67670934035365,10.373430080656114,6.471510858039927,7.644558890977529,7.05319736683016,8.819242166563704,17.552098663856132,11.09130672748301,8,1.0,1
18.5465,6.780621474467091,5.600825807289774,7.04590765347696,6.402523501290777,5.164803084808133,9.13075310039203,10.148081408865101,5.365217937977511,16.49354209001759,14.745584271191618,13.929983403580284,13.932176870365005,9.262412492967654,16.713745102345328,22.894733648243765,12.48655873989098,8,1.0,1
18.6465,5.913140956070683,4.290232420856716,6.523922998571936,6.108915852900524,6.464122108315992,12.02469274880276,15.5112818834601,7.178068799144156,14.924316993579666,11.748224155596073,14.953012487436604,13.675819582575878,13.085191005059805,26.517179059202732,41.68584550828159,17.043359691421774,8,1.0,1
18.746499999999997,6.737384195275112,5.116561294285266,6.131019065897613,5.234705679390579,6.216937100927032,9.127205622528718,13.16197750919891,7.16648281602972,16.3387978319778,13.644760839178728,14.006554559888,11.074352942190146,13.011462435482143,20.13165093346476,33.781269392059876,17.732413243368907,8,1.0,1
18.8465,5.35099040348034,4.382307633306534,5.330386007929396,4.579017926914029,4.099325619404931,5.146721988780465,6.100884946882487,3.6786607091184913,10.592402319484579,9.484337539988935,10.383909261798717,8.902510546835993,6.851405941083061,12.494948377941542,14.882425825882173,7.188324732131132,8,1.0,1
18.9465,3.058710720070558,2.4322897694064336,3.2247599796675064,3.3297940376306365,3.6214161245488845,5.838302637337496,4.118400352544179,2.427733207431635,6.6867939385704895,5.432256460031052,6.282792190255098,6.4570765387871845,6.55001870621038,14.469106034213326,8.747815850338991,4.604275037111031,8,1.0,1
19.0465,3.496178493255536,2.9755545665469683,3.9362268930822832,3.285773905777757,5.149705649862801,8.029644565832399,4.421288330581882,4.13663261038984,7.8132487445497825,7.6927138583334225,8.53696980452335,6.527634369634668,11.61934485723526,20.867090199191683,10.679553342611252,9.877277854833656,8,1.0,1
19.1465,3.3356303384946093,2.240034752046898,3.318742364804627,2.5949598818092205,4.739011340867615,8.191056020867032,4.975438711592839,4.236920497728746,7.390789266933667,4.542342879501836,6.652111629979461,4.147892859091703,9.542261499166282,20.413750664369108,12.962073547548446,10.369501631833746,8,1.0,1
19.246499999999997,2.328581896473838,1.3895244171024002,1.7977449175269191,1.3483706425977353,3.2572436512262883,7.721490759625643,6.598516181526043,2.712136651943522,4.491528897538953,2.569637749100537,2.3970893149749717,1.4606428377019625,5.774091082039125,18.33758818831232,16.196611186095044,5.879365000114164,8,1.0,1
19.3465,1.3416174425176324,1.489798291991977,0.8957616419968217,1.041025490541967,2.1970528235433195,5.907157122238512,6.686403797709908,2.2486725220867805,2.09426412622784,3.0154928341648928,0.5476180514841175,0.7954315707916761,3.0372475748225196,11.225544161833826,16.339919245441255,4.890123723989739,7,0.875,1
19.4465,1.3485209004942325,1.1911354233128677,1.2640105051085178,1.1567814971263846,0.9477750696766654,2.528299528090048,5.157534920228532,2.587732640603189,2.124261875726566,1.962608244806453,1.366465200046433,1.0575353870822417,0.6534871061400811,4.227349972548253,12.99947579652082,6.034376748243607,7,0.875,1
19.5465,0.9987685984898362,0.9520098448921454,1.346866404784368,1.6406520437374954,1.0388234633579436,2.3939610801448796,4.00340947891654,2.1694761968393017,1.1044448988124764,1.2552188390499126,1.806379851981173,2.3059935884511544,1.008648260718759,3.5975234467704467,9.017614086476689,4.388617720268289,7,0.875,1
19.6465,0.7842743639701059,0.8035877442174838,1.1055873750785252,1.3754885082792672,1.1116975746985875,0.7022164365886892,1.598782184417578,1.0133348979660521,0.5747309593492503,0.8315071227917915,1.0564225600683403,1.3633814315792498,1.1689135956666912,0.2151851884341833,3.2810343362170107,0.8506108168234014,5,0.625,1
19.746499999999997,0.9628815481440117,1.1353286323237888,1.715410201124825,1.0438000821663704,0.9715749934855973,1.0107461418529244,1.6513001295329632,0.5884148984967482,0.9108095817357842,1.6873775724435356,2.164895902384868,1.0615793960175344,0.5531158038291709,1.0794759359750759,3.1893575787954997,-0.0959349670824651,6,0.75,1
19.8465,0.8246982640147762,1.2520415107956888,1.6637799191766898,0.986962268633376,1.1448843653916674,1.23334782626586,1.39477899851093,0.748643568402512,0.36320804508060833,2.236855632150528,2.0606099688846786,0.8398379860750506,0.5579688631963452,1.5738654594254333,1.7215616272597194,0.362762774770924,5,0.625,1
19.9465,0.7207722024850776,0.8045713159370567,0.8716884079839619,0.6083674455379293,1.271367506045022,1.129941725301259,0.9113647561834772,0.7819489642062736,0.38158428514073167,0.5896276140782453,0.4747096100788075,-0.11218817144696004,1.0634227811159975,1.2066953552909743,0.3138686080600936,0.09721639165117518,2,0.25,0
20.0465,0.699295249114584,0.6192062272717156,0.7530554873082997,0.7644738528103266,0.7948877919639599,0.8157376378298812,0.9760131390198596,0.5968922322013768,0.2976541317850592,0.06866384442197694,0.2922343166170431,0.20988360875139186,0.0832918127135787,0.5122566752837865,0.7524864817173139,-0.513958735087833,0,0.0,0
20.1465,0.8234555083641811,0.9860772680723063,0.6980959569922784,1.1512732239675436,0.6289234547556506,0.8873041970759454,1.0966334569315281,0.5459276550273213,0.6181785457099703,1.2286116765366348,0.15245431375925034,1.1623057792312692,-0.18354953714402428,0.6518540738176537,1.174227844275416,-0.34256757105079094,4,0.5,1
20.246499999999997,1.1062814232043414,0.9569459857695706,0.8217026140760723,1.5593386891324417,0.6145117123564509,0.8672402693178506,1.252701164995991,0.6996759184831669,1.4628946987717801,1.1767228431993124,0.4629358791689504,2.2641248139591257,-0.2926785095093523,0.5486030096031247,1.907702701902253,0.02670169513351363,4,0.5,1
20.3465,0.8397942626159018,0.8298920413981589,0.9971001556396207,1.2411966751254822,0.5621982643336444,0.7251685270300152,1.4106885874492783,0.9737610376329118,0.3275986522996838,0.8972561978317798,0.9265602530962501,0.8642071978309249,-0.49089595964060223,0.28269962583559477,2.6714803235193636,0.8341464536047865,5,0.625,1
20.4465,0.30930649409244737,0.7011389336486271,0.9688624503922719,0.3148570555536852,0.9359164619692116,0.8544392441806399,1.2055903939039063,0.9923135010569817,-0.7381037543567617,0.29672031977094254,0.7751811886939616,-0.8627179446792544,0.36033621277923894,0.6011375484568112,1.8100409849441366,0.9543342670525199,2,0.25,0
20.5465,0.632212137203273,0.6569067911484839,0.7454528811485521,0.8122270009413751,0.9119861926735832,0.987569027370326,1.0631591959611122,0.9175529408200166,-0.026599226998623302,0.10209767279866863,0.13642249554575522,0.0945666777315672,0.29341217780905515,0.9022225308227783,1.2925050312948312,0.7411739817215596,2,0.25,0
20.6465,0.8311728123242883,0.8449946110348754,0.7071837089632759,1.104057673985217,0.6070735952378221,1.1173724281431554,1.0299828699932125,0.8401930427148536,0.7425732578346012,0.8595621977158201,0.1327966396950594,1.0077187059564539,-0.4131282300587013,1.3929800303756352,1.1469535228099925,0.5998493456326071,2,0.25,0
20.746499999999997,0.6629970277740702,0.7125943035940714,0.7628368836111638,0.9747109189669718,0.5764016136239867,0.8380073917076823,0.8034361493386671,0.8773055228335036,0.24359889749070857,0.6391822605486701,0.3962668978564949,0.7723181750538946,-0.48620194813509626,0.2269451280610626,0.5768823214742949,0.6882039755437467,0,0.0,0
20.8465,0.5593528738405459,0.8409031830348814,0.875205466401821,0.7825605502682642,0.6327460967152678,0.3830275362434926,0.6830982022117938,0.8356840830464161,-0.028692530536001116,0.9868232285415739,0.5013571753410198,0.3891822589143561,-0.20827619801705877,-0.8294556169057355,0.12463869960328788,0.366342006143974,0,0.0,0
20.9465,0.506552670183856,0.8685011804489032,0.7891164587348541,0.6048735837056874,0.7097781041687878,0.3983126515721185,0.4510142243818711,0.6010673279648648,-0.2782504591446806,1.0095658809453434,0.2563552760961743,-0.17492209798391795,-0.10016620113018078,-0.779089563522561,-0.4115560440227633,-0.15873058515681548,0,0.0,0
21.0465,0.5118768245743632,0.6840432904087345,0.3433273934344556,0.9426394062639605,1.0256074244503086,0.748488837831607,0.5273720764635186,1.1736246945094857,-0.2516284482375229,0.46202629312254745,-0.7830621897472717,0.4300408981271006,0.5577965488026944,-0.10342381690531371,-0.10451877303578995,1.1653250279701874,2,0.25,0
21.1465,0.5397737992405425,0.9423322827902959,0.5604412008699409,0.9329456753702027,0.9588298475685395,0.8314800284604655,0.7249105521271286,1.2423882855807602,-0.1341452349854423,1.1689463767454535,-0.5452964892725651,0.40048347328415546,0.38963619080869644,0.3576311177856967,0.40733874917794166,1.3142146398695322,1,0.125,0
21.246499999999997,0.6919500903961879,0.9835684367380164,0.7384363932947757,0.4522842616948674,0.5955071151673036,0.7909648176793388,0.6641463931941918,0.8789784360145492,0.22677751115045694,1.477305223284168,0.11227534795161496,-0.6567624315050249,-0.27563473876908234,0.21934735233761074,0.048348592787788094,0.6717320275957439,2,0.25,0
21.3465,0.9756266997292311,0.7896145069759816,0.6843259180985758,0.6334999593173054,0.950045959513869,1.1711095576162334,0.7248526213533623,0.7865855048897673,1.028623152183293,0.9012288270395916,-0.044968647398786005,-0.26379156254471137,0.48071367449635644,1.3404022816025476,0.25401636591429066,0.3191723449817092,2,0.25,0
21.4465,0.9030788389720128,0.696482031801633,1.2374858763465484,0.5323012791989018,0.8715230839738889,1.023061110677024,0.7144983420198466,0.7955912792418093,0.7308745737214446,0.49689417009420095,1.2446054418814385,-0.5671350176996447,0.18021911162814955,0.7735717812779427,0.19103726186866393,0.33125028734155665,3,0.375,0
21.5465,0.7438535669919836,0.6273777698695124,1.3253253938553304,0.7071476741194567,0.7171506592086772,0.781561284033261,0.4294114280964732,0.7434074409748078,0.42812828820775783,0.2612374551134028,1.6330929292704055,-0.230831890181828,-0.034722158156476196,0.12818162617987633,-0.5377275645590308,0.41521227566392305,1,0.125,0
21.6465,0.8807438226994052,0.6905543602932164,0.7824174461014152,1.5238503888950015,1.2155886108057679,1.205544621108284,0.913444108211871,1.0500207730161712,0.792980104699312,0.4624350432231731,0.2241477086068446,1.5992224779717856,0.9364485473404172,1.5374350770518566,0.6976183952242814,1.102118692630964,5,0.625,1
21.746499999999997,1.638793404474094,1.712670246351947,2.870782015692998,1.7799803938102563,1.9885446372215545,1.5504662229492878,2.6583699425533043,2.285274923100893,2.4066344605697236,2.6824367564927614,3.6360204442280706,2.5384550855288195,2.9053728069871414,2.613344356834627,5.2583928677466005,4.076689705435769,8,1.0,1
21.8465,1.6311432578650977,1.700303791876467,2.9577454058220156,1.3746934585288118,1.901830722894757,1.293715390960664,2.8795114288569894,2.1812781609616123,2.4310876624107554,2.5157438694256737,4.309158422683137,1.7634709556242698,2.962314451411722,1.4380025735019286,6.347091792445232,3.416703382579833,8,1.0,1
21.9465,1.100331750413365,1.1260265446334312,2.074611349092221,1.507039114745654,1.2094620022647657,1.1032053356642395,2.5481523646094186,1.2118060873042769,1.5712648290328146,1.6925932866732532,3.343101993156,2.012774072428378,1.3284187806894687,0.9439675008001208,5.88882031029687,1.4747133121570914,8,1.0,1
22.0465,1.0527808101259848,1.7252460226945863,2.9994034064066426,2.273504917200788,1.2254125486513894,1.7073846826878392,5.613830594120991,2.505057531988702,1.3480225222439568,3.3863012038333062,6.144474956218347,3.9092315987977093,1.0026471453349473,2.7324156217283564,13.934648507062514,4.939189189789069,8,1.0,1
22.1465,1.7577169967894637,1.6847173789411687,2.7186168700817195,3.3741131385664342,4.200420007408588,2.516535308559432,5.884412038900271,2.531666564396116,2.4181652143096413,2.8775589726315185,4.9665203582478235,6.8711440102210455,7.102878162832692,5.135272613325955,14.649598198452022,4.9322601802512045,8,1.0,1
22.246499999999997,2.1109386551663314,1.7839075172013827,1.9351486920958163,3.516805462452069,4.411096275726612,3.7277062359343462,6.216891950139551,2.9158883316720803,3.7458893343066313,3.4428360631700734,3.2094460328100123,7.583630025732285,8.632603840372246,8.194315818941714,14.425125049627054,5.076515680580602,8,1.0,1
22.3465,2.565555615190818,1.920806580395981,1.7174202484991439,2.2139735107946503,2.2201991645425387,3.5654078590423266,7.756574691908846,4.27356611033068,4.884670784659646,3.9159425371662295,2.624842656574108,3.439217201876487,3.5006708648916485,7.574631212119941,19.616577562583526,10.111788872966576,8,1.0,1
22.4465,4.466437909969746,2.7787496864937817,2.9639360100771697,2.902390457785357,4.008508034973338,5.47534567755772,9.629364134042644,6.313666909070072,9.302964343838562,5.261164839851144,4.931379502115367,3.773327467527859,7.38537711452243,11.863725724091212,26.161546105207016,15.669289846496326,8,1.0,1
22.5465,4.014952023534984,2.6431059406627857,3.284392476173263,3.532985553185738,4.234258764543645,5.6608986407255895,9.388293473043218,5.671778131836213,7.111451394552522,4.744408085238323,6.496667259630985,6.131684612800649,8.059165779453409,12.198161357903313,25.452063467341407,12.037559655253,8,1.0,1
22.6465,2.0049501034946138,1.179706472762202,2.824074348341457,3.9553264842117617,5.761066314343722,8.431873423909046,12.050538174781618,4.134934915979085,3.7798236930933897,2.0318802078142295,5.9019840198690785,7.9327021453410085,10.447374201414867,16.66049877679395,29.161928734405905,8.388623648323799,8,1.0,1
22.746499999999997,2.7702674840327437,1.379333611363774,2.3203274804202523,3.3979298911682227,5.523336589140823,8.319859761312406,11.661137168448063,4.505936226862,5.68974759822571,2.619878958658966,3.9721573363642797,5.537605577915568,9.296033511977946,16.38392190054698,27.138999500784458,9.656052709391254,8,1.0,1
22.8465,2.3767563600294266,2.0654879086969036,1.278499322775972,1.079447377715101,2.082932927405,4.619367145648271,8.112870340944609,3.366493799486999,3.857531816999459,4.383016085515931,1.512975096013227,0.9503612258988506,2.8272339009543277,9.450839952198073,19.67359396043478,6.540518105662846,8,1.0,1
22.9465,2.070647505252047,2.5249111627421317,2.098508548413772,2.657130456520243,2.2585357583200603,4.5458526793473615,7.513923560557949,2.7100815429253613,3.570002513653453,5.601465131982947,2.952941830418267,4.191688185083537,3.7795826368667207,8.775448545312631,16.8980223763083,4.964597953452948,8,1.0,1
23.0465,3.949369214467366,3.419528428813561,4.381043290885035,4.0250144255288625,3.7548569012675856,2.8494092579821344,3.9431245245923696,2.2101174347597157,8.144110080525575,7.841235761730603,7.987719517574524,8.047022519202166,7.061606976548092,5.540691249402492,9.083317175429295,4.277003080055366,8,1.0,1
23.1465,4.9663839827521645,4.218042614867406,5.081524282960234,4.075203855997165,4.750377263988299,5.553086378638268,5.817889711815081,5.340662703330179,11.009997119444181,10.713459264210826,10.395720326486275,7.860135444872296,9.244308955414843,11.753323089034119,14.018528270579738,10.775751640547046,8,1.0,1
23.246499999999997,5.605019435575192,5.148014825398163,4.288619337023328,3.5702426107850753,4.368513303632444,5.734907006748367,7.12462972488388,5.757184712218642,13.268340346919487,13.559487425486566,8.710056394563628,6.856584073593369,8.312265115838096,12.923050075134801,19.38821055085529,13.453869802526789,8,1.0,1
23.3465,5.549748668294566,5.239191827173032,4.541398396502972,2.580227054415036,3.4457037441889,2.989717316613428,5.851979610469069,4.172763284691844,13.597900722744473,14.256842226240849,9.752517410626018,3.879452319891575,6.617248405259437,5.907366908368143,14.720810708696353,10.810088713541283,8,1.0,1
23.4465,3.655636285022046,3.4092804171989224,4.0099916995203655,1.7415079824654718,2.3889016194261448,2.6430054142895054,5.154999679396634,3.5242161373388288,7.534758171209194,7.8298176394534345,7.797055943198023,1.9634296430308353,3.9964506394513792,4.914258729578701,13.060260989430056,8.171394786618547,8,1.0,1
23.5465,1.6476559846014707,1.1981494555934025,1.9958972404982065,1.788510320150585,1.8849732864303597,3.806826099730562,6.327418706001423,2.0937617709432117,3.1601221829976938,1.5360092242831263,2.182358193622498,2.3967117678727634,2.5251416821846924,7.417491654090511,17.919498418529336,4.546949493929747,8,1.0,1
23.6465,1.0981281400158855,1.423397040987424,1.98779826674721,1.476564934003491,1.781898608664237,3.903822580940709,6.128237671963654,2.853480549358603,1.158265142820175,2.0971218848535638,2.5608226749908107,2.156521739350265,2.4875205317427675,7.746796177142935,16.076882989107823,6.407634886121302,8,1.0,1
23.746499999999997,1.4476858950187623,1.656504756700643,2.567202217088115,2.1281316382465354,2.6563665391897553,3.5532536161967614,4.674135269782561,3.200635843457804,1.4410227827635453,3.3424365525001427,4.875242542529771,3.711213484532422,4.550955822007882,8.328053853565992,10.80354009508823,7.646030966633973,8,1.0,1
23.8465,1.6179273555580758,1.6323808121709256,2.281122929118694,2.1812229669557697,2.605822713530764,2.808989118442034,5.607890127319179,2.511993092206128,2.2950146624013184,3.0606138806029266,3.937218817987395,3.889246770619845,4.4858983220903745,5.866063933469626,14.012352733540126,5.627862977847363,8,1.0,1
23.9465,0.9823488323362299,1.666214306385336,1.8001513952756407,1.4038512263587255,1.905640594781076,1.3137357794051476,5.550571486927727,1.7904812790199132,0.9241199265819933,3.016693724559516,2.388717878760437,1.6793871866417114,3.154738368230472,1.4726661030243124,13.753500723243567,3.4653653276248644,8,1.0,1
24.0465,0.6821274325505594,1.2046583088761522,0.9780874181375558,0.7360514818831768,1.5529908290113272,0.5951572836048123,2.401449033092341,1.3940366441941647,0.10813585162727797,1.8047655372166145,0.44298971084223887,0.01377166488408402,1.8937526608776434,-0.0926552077094769,4.9026244876530205,2.155978784082547,4,0.5,1
24.1465,0.5768459220267687,0.8909686539149911,0.4439978331882959,1.0548441055700786,0.9595711834195746,0.6861754506066096,1.0052768696236831,0.9871042080236853,-0.033932870359407244,0.8509885408337872,-0.4721322502112885,0.8116269860501352,0.6466632597830287,0.010280858903175311,0.9644905937922078,0.7885820175128546,2,0.25,0
24.246499999999997,0.62787730132754,0.8223075654992156,0.4769226737117853,1.0553846892498913,1.1390807027403325,0.6815309331336352,0.7776320650514653,0.7228771029016112,0.1468121824955368,0.7360211107082459,-0.36612148953846896,0.8863733491732446,0.9342903782108469,-0.017196138355378983,0.44286801378347646,0.010860178467652073,2,0.25,0
24.3465,0.7578453066097299,0.680892047673419,0.5024791028027066,0.6586677053124772,0.9526783294716558,0.7281175700921377,1.1110290963916538,0.5497975628297668,0.24561546852848345,0.28121711982739644,-0.5051849523765823,-0.11974353865263866,0.40509568064018475,0.09903882749065447,1.4564360072209006,-0.3207955118369291,1,0.125,0
24.4465,0.6925580598328387,0.4055245026958532,0.6293357713661396,0.7813452415932448,0.7228039621348763,0.6947434513640133,0.9447279142587472,0.6798363257548321,0.025669320499554112,-0.512262264879785,-0.22786296842067727,0.06777052097545462,0.02623547028742152,-0.08237343823453788,0.859855780881378,-0.2070495887792404,0,0.0,0
24.5465,0.689031229704985,0.4165984677750114,0.5977117315624317,1.065023691450867,0.9570255764833054,0.5728656932142231,0.7645379212224938,0.7025973142483727,0.1545786975023716,-0.47053022214644685,-0.24186610155387986,0.8444744752604442,0.36976759736594794,-0.18190601044187196,0.3713588922149391,-0.13794509471602834,1,0.125,0
24.6465,0.7671886718085638,1.025835334234717,1.2016857258428717,1.2048076778155807,1.4118166074504457,0.5280482951839256,0.8948173604162343,0.5269770531616147,0.44016724784469885,1.0769314369048018,0.9872092012783085,1.4344077591163475,1.5575315476904075,-0.4316057603059795,0.8815437554154674,-0.4473770389822365,4,0.5,1
24.746499999999997,0.6447076682495623,1.4709228399049943,1.968280952763171,1.4750085258318468,1.7770130440776244,0.6849133689272546,0.9694488324520703,0.9149958189657582,0.10492752548322025,2.899628071215752,3.2844843817292984,2.073052101507227,2.849994019150151,0.0029651443769322596,1.0068592299252663,0.6002672730894885,5,0.625,1
24.8465,0.7865848968207749,1.2544952063072046,1.7427211912865097,1.426801189608745,1.421974595444389,0.8650670060148701,0.9204721036733423,1.0849933642241631,0.4914162992877165,2.100929473126658,2.0885964485884396,1.983981980504219,1.5652345398258618,0.8354666310400133,0.8092740603870132,1.4380586649311076,5,0.625,1
24.9465,0.8062359468220459,1.0487115232074176,1.176967529776854,0.8737359377338809,1.1216600477938754,0.9801968788003306,0.8918163339262222,1.1606918994519424,0.5104856634335158,1.3859625510102722,0.8185562442958271,0.5750278092705297,0.8496874900996656,0.833546703190034,0.8791824285803278,1.647207305109263,5,0.625,1
25.0465,0.731019735248771,0.9949383936680489,1.474076681183047,0.7792200585081813,1.1509617747305976,1.1570302048540082,1.2082344185670277,1.1836976821239353,0.3132634697260131,1.1400083746297773,1.8632352689477023,0.19672495017984967,0.9551320580736394,1.258337575286337,1.7513936349194692,1.5453458809528584,6,0.75,1
25.1465,0.6036323225228435,0.9180270854326701,1.2693617412683385,1.0794805133056717,0.9438662176258792,1.2852109612819542,1.3113323472510385,1.0555096709598935,0.028542313324610026,0.9854844931708712,1.199268465840873,0.9824870599020636,0.49142482178117386,1.74748681804509,1.959511849726147,1.2208787599474145,5,0.625,1
25.246499999999997,1.2337016154346432,2.2991049576822373,1.5362224244227736,1.7255981551018342,1.323911045273224,1.1539465672950884,2.930727973568324,0.9215714976351401,1.043279402843051,3.8007409640827414,1.3221222685062577,2.0892196704629087,1.2318109603262188,1.4388660845538128,4.969542460927235,0.7625550556051334,8,1.0,1
25.3465,1.917547535810269,2.5333003630810005,2.106214788375171,2.105053269328736,2.291130345973679,1.1913507584580978,4.298331672190158,2.7472470480041498,3.459075923741371,5.121285523559014,3.125651470266161,3.2279668172761564,3.60841268894365,1.4678842331818294,9.78072022577412,3.7414827048751733,8,1.0,1
25.4465,2.566566356654154,2.475968590286469,3.502803032745587,3.8072337179035003,3.4329944183953347,3.129481392562036,6.394174594601672,3.08561271201597,6.048869743561458,6.335591404733842,7.171965587828567,7.18608746897307,7.158891518629049,5.533660579673446,14.818300133644106,5.8154380447092375,8,1.0,1
25.5465,2.76100326141911,2.3892487571018255,3.445708521062279,3.803970057029996,3.067653764971028,3.719265426080552,6.2843373631960855,1.9292197321462994,6.675908576035665,5.42309130566057,7.03934799230742,7.1590480183581215,6.010781492739801,7.965982896465895,14.786047444840207,3.8465673624161796,8,1.0,1
25.6465,2.646366693132322,1.897005166337189,2.8278872480031367,2.3667720321566765,2.598278953912349,3.4404817754014565,6.229862302039478,3.325841992243957,5.7919296091156,3.420875397788778,4.471156089863595,4.001369727721056,4.694014382035982,7.847813078205121,16.923879307634678,7.034852313311941,8,1.0,1
25.746499999999997,3.0066215808894747,2.8277058148856766,3.3495097330814914,2.2646849880854107,2.8101880323634036,2.8036275866939206,6.299961132440555,3.4024277740613296,6.9812631806125935,6.737925749222562,6.374642397643477,3.6506299682284764,5.097263569778384,5.405693526267347,16.04268181449811,6.566057390200378,8,1.0,1
25.8465,2.7144894585005988,3.057666675421104,3.181625746733367,2.0966743026807553,2.7067604794640285,3.3427529424392355,4.680617473453418,3.0909354857372495,6.137077794479543,7.828474243921843,6.614010467384356,3.4241091150082674,4.556486619192728,5.915589760149066,9.691026272995735,6.234602376276713,8,1.0,1
25.9465,3.821517738606329,3.2483380286945707,3.09124930607502,1.909200750174654,4.035166643713107,5.912464383219389,5.483405288931049,4.195767180034178,8.080339525723351,8.457828433917495,5.987362873280734,2.768491697734388,7.838361695960735,14.127939314212933,12.414657807515276,10.69284188742036,8,1.0,1
26.0465,4.0699977535408225,4.20903839836652,5.069124912518776,2.682386579509718,4.146903265666302,6.002140098480223,7.253280556306562,4.225777494922236,8.933868137957658,10.851516419195082,10.536517142601774,4.394423044523155,8.20407163227084,14.469793210309676,17.621440794666633,9.800989431206524,8,1.0,1
26.1465,2.747360064531488,3.3069735563757656,5.011094241323644,2.9346720256552192,2.3598324127554706,3.9049844039435806,6.576098447901382,4.168170916680058,5.626420957811966,5.625904514496658,10.375849508113404,5.4280624313131725,2.6849846531722448,8.38430103918508,15.28706098271945,9.517571024081631,8,1.0,1
26.246499999999997,1.8913595318109733,0.5538111379984928,2.154875707150497,1.5561830503970109,0.7340581672074964,2.065266297670534,3.0232909125072975,3.175975662778368,2.2825962932175226,0.12568685504627133,3.547350727277708,1.336259289048793,0.15265123321100715,3.198618508138149,5.1202483600168724,6.146494879232444,6,0.75,1
26.3465,0.24156407872113225,0.548155528117041,0.9463393330894324,0.1400980290583431,0.773343440387539,0.455310744520395,0.4516224081728897,0.8622959554809093,-0.9019872486197678,0.24372545132518383,1.0551577885053105,-1.2812150464678123,0.40901450750995916,-0.33725751932093445,-0.4500424960532358,0.8308536397317466,0,0.0,0
26.4465,0.172527111212065,0.39877174705301377,0.6729965476080686,0.08455655794014089,0.5648459359916452,0.27781272779667876,0.250985977736182,0.587259468817412,-1.0697966335362374,-0.24221834952341761,0.28844822000667464,-1.415086773940741,-0.15722466301993465,-0.8652454256024104,-0.8572223457020195,0.07349179814740017,0,0.0,0
26.5465,0.1103986129696025,0.2675474877162156,0.44979804635723436,0.05369974263565779,0.38686569055246106,0.16732067533534814,0.21011817436743527,0.42196101578295453,-1.2549289811716533,-0.6947591479212488,-0.34249780337595803,-1.502550357608254,-0.6457059904309577,-1.2209597938410932,-0.9828876106185238,-0.43290060892598375,0,0.0,0
26.6465,0.06831400163398992,0.16405712750806256,0.27150631431171146,0.02881428451182282,0.2433979309504428,0.08192867858067047,0.16072066703345364,0.2750280274359325,-1.388374207760421,-1.061855265161871,-0.8622362738700761,-1.5736636061993046,-1.0790673933153878,-1.496393686052189,-1.1487663769282275,-0.9425016010648377,0,0.0,0
26.746499999999997,0.03598305272998069,0.08603644273132623,0.13866061327412202,0.011623047160486073,0.13436911723609363,0.029980084622676633,0.11659695145636488,0.1611523762933477,-1.4913521212109209,-1.3342536494744919,-1.245176771831793,-1.6213153551374362,-1.38891336805251,-1.6411229156365454,-1.2972038724487316,-1.3181571854670995,0,0.0,0
26.8465,0.01417147974883623,0.033706927591034705,0.052383679845093394,0.008480631125626453,0.05808741448800688,0.03413749215370338,0.0787281397248886,0.07793862492410375,-1.5574566235936143,-1.5085273902739413,-1.4743590403814355,-1.6270539517950422,-1.6076110548646725,-1.624829897995821,-1.4245131930301311,-1.5965011160582179,0,0.0,0
26.9465,0.010929941107526826,0.024515455458409698,0.045870102168371625,0.015061537628311666,0.024824561668117983,0.052135190919384684,0.04779607496068864,0.02824419778966841,-1.5635362047715615,-1.5280149457075125,-1.4816750669991832,-1.6061537120162024,-1.676400531995599,-1.556347941660452,-1.5289205340809935,-1.7378850181091259,0,0.0,0
27.0465,0.018831864921676142,0.04150359995749206,0.0746445129598843,0.020225518916068958,0.0406552675902802,0.060367839966973966,0.02387047361920619,0.03341841014814032,-1.5351721743634281,-1.4605681363655674,-1.3850272755096162,-1.5903552645470738,-1.6283328676226947,-1.5280295521446299,-1.6115681079088662,-1.7182814103815067,0,0.0,0
27.1465,0.024327009375376733,0.05201493730507653,0.09043720020964525,0.023556485572033298,0.05259535735698078,0.059858163921466576,0.009475916402199443,0.04986869773568925,-1.51642423139104,-1.420789854612822,-1.3360299491646876,-1.5805894665484912,-1.5893841131896516,-1.5296898729296182,-1.6525919883125757,-1.652792023457917,0,0.0,0
27.246499999999997,0.026964318891331034,0.055127589389003515,0.09331880021037754,0.025558343761327124,0.053775055624527966,0.05331732556918456,0.014164202121564115,0.056556096416321186,-1.5077789115888518,-1.4094810662000046,-1.3273831757974852,-1.5748146303394315,-1.5857255343816261,-1.551172566706289,-1.6380357833956782,-1.6289128739896461,0,0.0,0
27.3465,0.027508679181797648,0.0529209949272546,0.08712794502608835,0.026695194316282336,0.0469801503008055,0.04320705562200591,0.022730858441280803,0.054933811627748234,-1.50602038267687,-1.4173232165195524,-1.345545152077945,-1.57156036866912,-1.6059772087591073,-1.5842247703164645,-1.6052229232620903,-1.6344724128186556,0,0.0,0
27.4465,0.026723089460125863,0.047392655440151234,0.07539050204236217,0.027360443611270664,0.035204586729028896,0.03144254057397884,0.0289663671280546,0.04770829280439018,-1.5085293648812461,-1.436826884538099,-1.3797244414186316,-1.5696616354629072,-1.6409974196370316,-1.6226653602159304,-1.5832113993781252,-1.6590733233817017,0,0.0,0
27.5465,0.02514275044969224,0.040140681583428636,0.06096978143524366,0.027678901864201143,0.02137107087819463,0.019623687778380472,0.03283495619917529,0.037389577985022654,-1.513560343276602,-1.4622675532029843,-1.4214890795412194,-1.5687526903775355,-1.6827799184816592,-1.6615565897804538,-1.569844236301015,-1.693975364997132,0,0.0,0
27.6465,0.023009252151718503,0.03234362922898209,0.046108762631659285,0.027413128999324878,0.00938064419033287,0.009406733688854614,0.034475388393602466,0.026212918110093474,-1.520347752309805,-1.4895049182967426,-1.4643316856058615,-1.5695161511417104,-1.7164431058057195,-1.695760471496184,-1.5642175991026535,-1.731602703588347,0,0.0,0
27.746499999999997,0.020307916785801933,0.02480758824676566,0.03249212648095436,0.02602184885117067,0.008552156669817151,0.004337794918822949,0.03376619164139641,0.016079231477131965,-1.5289751326529306,-1.5157417920834275,-1.50334837509661,-1.5735412356465788,-1.717546896651533,-1.7080653654820515,-1.5666559811990262,-1.7653899569301132,0,0.0,0
27.8465,0.016886441448262908,0.018032815313580367,0.021283778718718574,0.022877042167387347,0.01293070004744937,0.006606491583703688,0.030451493958232174,0.00841924199001214,-1.540017751300378,-1.53926332424441,-1.5350928319658825,-1.5827898510610496,-1.7021179640564463,-1.700129473657058,-1.5781478256164434,-1.7900351021203398,0,0.0,0
27.9465,0.01250627961908534,0.012283345318848903,0.013275235539454984,0.01734684447468319,0.012128160037352056,0.007117803776401393,0.024154462816705552,0.004532704476286776,-1.5545798091280991,-1.5591842111674024,-1.5570912779071835,-1.5997740691430764,-1.7054555231717856,-1.697970214317428,-1.6005798097913466,-1.8009234668439191,0,0.0,0
28.0465,0.007212193038462548,0.0076528503230465,0.009314793063542864,0.009898935169706177,0.010066416218503809,0.0052039344228983365,0.01490377389797088,0.007487301624941154,-1.5735149083039122,-1.575221008553186,-1.5673031567892166,-1.6235929412007173,-1.713291711866394,-1.705414526803413,-1.6367444404720346,-1.7933541636322659,0,0.0,0
28.1465,0.006523451471911894,0.004128283993368745,0.010681077420805664,0.013629850000653327,0.02984173703639336,0.013171469000901678,0.01190164610294985,0.017802896166061892,-1.5759226703128109,-1.5874985408667754,-1.5639315337210058,-1.6168447077918138,-1.6699500391305488,-1.6874194964422566,-1.6466028269035053,-1.7624910512423875,0,0.0,0
28.246499999999997,0.016689001826711722,0.001696369751121163,0.017679972048345344,0.034068907239082076,0.06897933919272088,0.03246763302126569,0.03109585546307006,0.03610374210003974,-1.5463368346743211,-1.595844630980421,-1.5456007414327457,-1.5604137481875089,-1.5588225705104264,-1.626668968108968,-1.5895108502425868,-1.7040779651635805,0,0.0,0
28.3465,0.03202655270931942,0.000976261287225336,0.03009564927149342,0.06395775053051303,0.12628506661361058,0.06120541016800168,0.061574528763588696,0.06358053753296662,-1.4970629905926507,-1.5975396657877414,-1.5114076068257405,-1.474837726275289,-1.3968573825384256,-1.535256523779422,-1.4851411725002768,-1.6147835878338481,0,0.0,0
28.4465,0.05189460895660778,0.001696814163658758,0.04806363994895148,0.1030968703194505,0.20288911929048167,0.09973482019239596,0.10141617568551334,0.10102393295433454,-1.4341848509045079,-1.5947846446914704,-1.4608218604051715,-1.3636826789678447,-1.180201243539038,-1.4128145918708626,-1.3510366519383663,-1.4921297051546178,0,0.0,0
28.5465,0.07639578846264211,0.0021966669192923422,0.07158337106403638,0.15174594908441819,0.29931141277535867,0.1482347708326403,0.1506829804524003,0.14869059571909762,-1.3568008124226885,-1.5928704301921335,-1.3939868855124125,-1.2255606791436702,-0.9069117978014511,-1.2584418404633504,-1.185613222527046,-1.3352883571407494,0,0.0,0
28.6465,0.10522246596897662,0.0023651361799554675,0.1001359307340415,0.20924695686807934,0.41406030959594714,0.20591150279447346,0.20867763295948316,0.2057806094145235,-1.2656387424967135,-1.592256049412496,-1.3124221229087036,-1.0619998745076797,-0.5535548556446398,-1.0744049578177763,-0.990669095485179,-1.146762960840139,0,0.0,0
28.746499999999997,0.13729676175556976,0.00228862073353968,0.13243000796035626,0.27338991555665965,0.5425289589794985,0.27043217652980683,0.2731895147601894,0.26992664404145056,-1.1639645388132775,-1.592528376822144,-1.2198127567057784,-0.879068078313049,-0.1755148878920509,-0.8679535162378911,-0.7733246177104626,-0.9342381306997567,0,0.0,0
28.8465,0.1705557248860465,0.002055383296468099,0.16621814258154824,0.3399995445178693,0.6762045392812386,0.3375233467444951,0.3400565063315776,0.33681258445643475,-1.0581940786182544,-1.5933526536277816,-1.1225532436243233,-0.6884689257743146,0.13944565858231645,-0.65255433269408,-0.5473342871664496,-0.7118374450967778,0,0.0,0
28.9465,0.20169138481681906,0.0017373204706425257,0.1980456535411818,0.4024193957360745,0.8016451527655227,0.4004559428949427,0.4026406990536776,0.3996669335955349,-0.9587634126324227,-1.5944703785952923,-1.030539682502776,-0.5091072262153064,0.48790241484770047,-0.4235585815157578,-0.23768237175309628,-0.5019411214758811,0,0.0,0
29.0465,0.2258326853481687,0.001388380536382703,0.222932208855758,0.45087628042363287,0.8992083202067,0.4494066985810982,0.45118854913489304,0.44862844658899537,-0.8812441599875457,-1.5956916984652008,-0.9581934781053068,-0.31505988587580797,0.809834350738449,-0.15119099928532045,-0.02050257039352191,-0.22809519323552702,0,0.0,0
29.1465,0.23624454632892541,0.0010464879237241421,0.23406611025124197,0.47187751695745994,0.9418412361502331,0.47085096203485344,0.4722257261424697,0.4701407895062137,-0.847564005665849,-1.596884828397271,-0.9255850926986858,-0.1713017882905584,0.9338834123119013,0.0,0.0,-0.030881659742576163,0,0.0,0
29.246499999999997,0.2244363406837952,0.0007364926405999152,0.22290680386264833,0.4484265858988983,0.8955068413748714,0.4477738458781774,0.44877127742485784,0.44716443736977135,-0.8865794930607436,-1.5979643689978533,-0.9589734162037742,-0.2950642057693098,0.7961676187890282,-0.15962749260278253,-0.06598500718469927,-0.21971740764766945,0,0.0,0
29.3465,0.18143908654755908,0.0004733289643603138,0.18045671822835263,0.36257657993474124,0.7242860902432958,0.36221877195704333,0.36288845140189513,0.3617273340236554,-1.0341184064740516,-1.5988798226265049,-1.0908646397460897,-0.6427712417011893,0.26005322474872106,-0.5632659039766357,-0.4245720067076426,-0.6507774443720389,0,0.0,0
29.4465,0.109029983351789,0.0002650796966018958,0.10851241852732628,0.21789140766193116,0.4353244301020557,0.21774204919991058,0.21811352906815873,0.21741934884496844,-1.2994912127181895,-1.599605159510892,-1.329524700312211,-1.119886015219119,-0.6924317036384086,-1.1288342784168655,-1.0562996058916048,-1.2037775158848107,0,0.0,0
29.5465,0.13562524887116767,0.00011630473576203454,0.13560231972043343,0.271259443481072,0.5425011332683649,0.27118582517726814,0.27117071323026837,0.2712806684750782,-1.2542326321555946,-1.600127003216642,-1.287519663460109,-1.0266067753871893,-0.520753940384897,-1.0312176123937233,-0.9582849163051137,-1.100508159748134,0,0.0,0
29.6465,0.3492605954331109,3.790214538422936e-05,0.3492105241816391,0.6985279578547536,1.3970152400335474,0.6984196690039481,0.6984111596124344,0.6985413281512132,-0.620417457812827,-1.6003352385242837,-0.6858473430206096,0.10977686582822614,1.7857883094471527,0.2552129472292876,0.4038450132797546,0.23200925254736496,1,0.125,0
29.746499999999997,0.6939804426857826,3.721775792598466e-05,0.6938983545177236,1.3879516015742113,2.7758332803135626,1.38785696277521,1.3878822593181315,1.3879213672151078,0.45404835797962034,-1.6003239725261758,0.27753455606579397,2.031775640437383,5.651127440858698,2.418464213798459,2.6850698919376184,2.471508394787407,5,0.625,1
