t_center,rms_emg1,rms_emg2,rms_emg3,rms_emg4,rms_emg5,rms_emg6,rms_emg7,rms_emg8,mean_z_emg1,mean_z_emg2,mean_z_emg3,mean_z_emg4,mean_z_emg5,mean_z_emg6,mean_z_emg7,mean_z_emg8,channel_count,frac_active,global_active
0.1615,0.6210435200169939,1.0331520177318132,1.7000109942938353,5.541855168056495,5.109065527052173,3.319864288741088,1.1012015673486737,0.8612753734318201,-2.772295491575031,-2.215066128803693,-1.7585516078189967,-1.9877288442708663,-2.3619026325652386,-2.310163337430655,-1.8360903282574474,-2.175547367699659,0,0.0,0
0.2615,0.8990616676017477,1.648068366404051,3.4407346177257936,8.036480299262498,8.38840847394265,5.337385484993746,1.5243061530383704,1.3398844069686824,-2.709996750915974,-1.9090836265457474,-1.1931020211042245,-0.8194723287743645,-1.4427651010954656,-1.9456067059091569,-1.7878091252445083,-2.064262755952204,0,0.0,0
0.36150000000000004,1.8633034886639446,1.4750612216558041,4.243879629770149,9.888618544840428,11.012802924158308,5.894994410511135,1.7464297284095618,1.5027522011389574,-2.3967284010324716,-2.004510479534567,-0.8777519345746702,-0.2594005085637673,-0.8207080455753483,-1.8377920657626763,-1.7564367615025802,-2.0117929253445115,0,0.0,0
0.4615,1.8830586083032659,1.2982042299135774,3.146555117644035,8.510791150509581,10.127277360579724,5.615328074986725,2.2491650780276125,1.7594202808158468,-2.3645373587513023,-2.072207282639411,-1.3482156591418553,-0.8942394466922126,-1.1580733206814238,-1.9075204826630887,-1.7076755829045396,-1.9730968359590744,0,0.0,0
0.5615,2.972052755600542,2.5528643243381994,1.2163044288224831,5.633634564703059,13.939761637783262,9.215470649707553,3.6988207192771014,3.526512625851377,-2.13014440053131,-1.5648556516210212,-1.8993197396654993,-1.5985178925189933,-0.43012003113604536,-1.4827566320735883,-1.5448931727584938,-1.5975624741453416,0,0.0,0
0.6615,7.511556082438507,5.601581973793569,5.8647818923870565,11.061748796270113,17.805444603248546,16.99693155929908,8.369057718067832,7.294315184820741,-0.6102904786329758,-0.29492512318175956,-0.8949463152567736,-0.14802815943695222,0.8063354436501712,-0.43043373447655386,-1.1183609332702802,-0.7382938422379162,0,0.0,0
0.7615000000000001,8.0855101965951,5.822281780351858,9.325135289657362,17.651600064782443,19.360330044459193,24.52417477253359,17.42230615419914,9.863102841733447,-0.32585642053857566,-0.16746274651974066,0.6011123180130958,1.9457078545405644,1.12788208330279,0.6547763348764798,-0.09288068907906595,-0.06356610115673265,1,0.125,0
0.8614999999999999,5.732218060946811,4.7183179243688205,8.57916705715989,15.986241107966274,16.754288138074543,22.046808124307535,16.413130284081568,8.315162543924972,-1.1517138617031477,-0.6382978667351447,0.4065978225496005,1.286950040715428,0.32052656948279584,0.23721907791960242,-0.2824497815743482,-0.5245558366734621,1,0.125,0
0.9615,7.1216018760619875,6.0636813460280825,5.802090951348013,9.096104931899779,9.9202770843854,12.548555238664896,10.474661983244888,7.236317879624122,-0.6277345658056938,0.022256293489026188,-0.3869237697843609,-0.4643640808593449,-1.0688627082259434,-0.9819146722696417,-0.8826418878575545,-0.7011348322817608,0,0.0,0
1.0615,7.835152539075322,6.831099845263076,7.7169345938613345,9.522498150620134,9.804909837135664,17.537379069261096,24.511561346747673,9.63149716485672,-0.25360001535027704,0.4374034591920233,0.08759884343413658,-0.3694621916380159,-1.0678361935734126,-0.38718662853867536,0.6171875349650794,-0.0724049297933153,0,0.0,0
1.1615,9.18701935724624,8.016470480104212,10.134412987755818,12.339556629228605,13.365493575741192,22.71388995027679,27.97578690562224,12.203359459478262,0.17140931776757054,0.9351330366045619,0.9590876295699554,0.4456312363086405,-0.3536993234521246,0.525775643441846,1.282935223370648,0.5122200187098702,1,0.125,0
1.2614999999999998,10.914440434686467,9.467964272144114,12.005675693826978,16.697726712225368,19.37470785998957,20.18930779555235,18.10746639584625,15.431437795389284,0.8297076222179247,1.5918466247819023,1.569342833796065,1.812563995255553,1.0427461968615435,0.12228565073718592,0.0384054660581325,1.2980203155644738,4,0.5,1
1.3615,9.5968655770215,7.975998504053456,10.824260401825732,15.826488117093744,18.03647556085778,15.993301073366759,17.25925528474429,14.545608071885448,0.31340520405629896,0.784851586393555,1.090366967798895,1.4800535733844895,0.6775197375599444,-0.46817268904943127,-0.1036097444936043,1.0622488339637581,1,0.125,0
1.4615,10.30779548306393,6.634929339329384,6.954333145511605,12.16444383637435,14.277761926179712,19.14588710189853,25.999746583383054,12.79972022568178,0.5463612440920224,0.31434447656765785,-0.06286569141585101,0.4314874585119455,-0.07259864295362073,-0.06557349785071506,0.9750041984568412,0.6898571132041849,0,0.0,0
1.5615,11.411230954856963,6.651853285334617,4.884058065466661,9.231946024777724,13.174274225496895,21.45492208551245,24.173505235645596,12.114340031787567,1.0249374156850037,0.3080830211778056,-0.79983856965734,-0.7503378539499166,-0.3955394091806118,0.32457662206361226,0.7546983531687829,0.5041885996080032,1,0.125,0
1.6615,9.6946243768333,4.815263884538911,4.1121819518429,5.306498628652455,10.872272707793718,18.664754438689002,21.34989617643969,9.359967411610004,0.4134686562758486,-0.4865276535316216,-0.9745816847000454,-1.6619417609115152,-0.8333668671365279,-0.09256946414201657,0.5078023597306132,-0.12974345891104017,0,0.0,0
1.7614999999999998,8.510869196060407,4.304950774443381,6.5979330994582,6.649683171232997,13.811342691280608,15.870672065287122,22.251934126727818,7.937358631453781,-0.010149685869588792,-0.6903186909099236,-0.3008399830045828,-1.2646124526013556,-0.13731417269534307,-0.48703823279569924,0.6418171009966261,-0.49940157862358103,0,0.0,0
1.8615,9.373663967068879,6.91341977051024,11.332772455650533,10.766926810555969,16.853906497450883,22.129520832128325,20.955700932844483,12.07587833056702,0.2564754250418052,0.31213785541451006,1.1319641911713787,-0.13430967886958553,0.5862203704150114,0.2889684314588031,0.47683964999806966,0.32634350359862113,1,0.125,0
1.9615,10.536090978067767,8.78072608860185,11.17803126117724,11.748387402875355,17.366641863488777,22.29995461169602,17.71080676400944,13.292279341273483,0.7074477525743506,1.3257257598554026,1.1219165534704643,0.2621506861370522,0.7105288804199066,0.30829051630634335,-0.014767836333698891,0.7378384860397089,1,0.125,0
2.0615,8.46927632473474,7.202695951966016,6.306555435103959,7.794354334135465,12.802103904911524,13.365704070858408,12.465986215047332,8.5875426376591,-0.18858218540398122,0.47028758502203294,-0.3113956779707029,-1.0295249104834807,-0.5749745346199969,-0.8366904245621873,-0.5015793463337578,-0.41501354045189115,0,0.0,0
2.1615,6.9601210416049435,4.395114864429225,5.9530289999901065,9.98430176277157,15.529167468142013,17.898908076255616,20.329416316321712,9.441633136564036,-0.6724010824218061,-0.7259691487224696,-0.3521209146852782,-0.4831225367377857,-0.16151738368366136,-0.34160595700102,0.2868207356143901,-0.2650937471079112,0,0.0,0
2.2615,8.554642764689913,4.203032867758125,8.233341282612686,15.097380574641605,21.240981692367,24.559061503876165,33.832750791711305,13.465976966846979,-0.030127601859668292,-0.7945990285130401,0.3352643806126202,1.3183341131493487,1.5380804673112354,0.7126993218734409,1.8704321502896386,0.8063925504939787,2,0.25,0
2.3615,7.1717681981017405,5.67985091885968,10.106693374499757,16.464263115118026,21.872401434999727,27.052293561305806,34.472700636448195,12.189897305730032,-0.5886515895560176,-0.1503280304305547,0.9007608723038376,1.7254141175232351,1.7547029896669641,1.120809461395924,1.9547248933013355,0.42831467885805324,4,0.5,1
2.4615,7.212150960675889,6.848843367343945,9.86549732489789,13.551934728557294,17.969180975524537,24.833313521684477,22.58926640834608,9.500911415586224,-0.6304836753734354,0.40726589972493554,0.8185188658208655,0.7292991802559178,0.7032639656822652,0.7732287109085115,0.5631828948574211,-0.1761705382766996,0,0.0,0
2.5615,10.05407381929123,7.798614637656384,9.475489479879805,13.272300488545751,14.655516727363501,23.468740249934125,15.921867002985312,11.284690257065456,0.47831281294242056,0.8508602767387936,0.7576117763407507,0.726174542331049,0.05362726700930432,0.6120541045403808,-0.11224058819509766,0.29028994561961896,0,0.0,0
2.6615,12.311341510207708,11.119738749299835,11.62901951408528,14.329873719996643,20.131266485589776,30.59599714426974,21.771576602360096,16.363998925351183,1.325603189473715,2.252505979427704,1.4455259022929163,1.1288859388140224,1.2268678644697342,1.5368062114311019,0.41881776095684736,1.401280707056542,6,0.75,1
2.7615,15.126952576875285,13.355104425364852,12.307069396329286,14.016654501527308,24.041193313542706,39.599808609215295,26.23812837308023,22.12370648722344,2.3152980855447955,3.3918006410301755,1.6832901813496477,1.0368368928637164,2.2010469971463595,2.820419319269157,1.0352143811802672,2.844348845940689,7,0.875,1
2.8615,14.459585147534053,10.915372431688567,11.25063573554318,13.83721669139611,20.972284335931974,37.882598368269,24.770154888660922,20.653177362396868,2.016660587645185,2.1181640861767312,1.3436472551706198,0.9347635818647337,1.425757240861478,2.524984161432943,0.9189821755960543,2.4797912807785782,6,0.75,1
2.9615,11.712868162441485,7.427238977233382,8.944769510952309,10.034660084550806,15.049857176451493,29.00542487108695,28.436886355501088,18.553346109621984,1.112557800233657,0.713114145919191,0.5047403087397951,-0.3522100188555028,0.12471339374270642,1.3193166892215265,1.3610647912089298,2.04268646602022,4,0.5,1
3.0615,11.260959152692662,9.799399172172967,6.448838692484242,5.151463910029571,11.619855606517785,25.029091960006912,28.401243429481525,16.941181642085024,0.9832963978266716,1.623986593611668,-0.1869093108061256,-1.8153607740925894,-0.6919423463557977,0.8175467700176341,1.348379821456041,1.535989262665823,3,0.375,0
3.1615,9.964970095552628,11.309709416625388,6.2887528945315125,4.382570399718188,9.28101087140745,25.176732200899497,22.770591065393624,9.587126373476156,0.4906648051420308,2.36233545711258,-0.2353465859075147,-2.0900184344165074,-1.203356608711795,0.8543940374150264,0.7025619914752127,-0.23163173995409894,1,0.125,0
3.2615,7.956194194252396,7.989867764124539,5.061392481750497,7.9884061207461965,8.273023514621805,24.71950681366275,21.16889664160097,5.463456682703471,-0.20815307491716975,0.5250185865811793,-0.6542609496221474,-1.0029725534361262,-1.4392016667326484,0.7748020206600941,0.529092694574746,-1.1600360737235922,0,0.0,0
3.3615,8.195812712643917,6.724990932201861,7.484146990936827,10.056245495347355,11.306578555115786,27.79988395107891,21.990870163836938,9.170099770519277,-0.13024750194813325,0.1447379639784062,-0.06449295918155458,-0.18029707470969228,-0.8636777941917082,1.1407123507243546,0.6039891872307248,-0.4440249598217572,1,0.125,0
3.4615,9.785966640571026,8.527004818447447,9.505572152182292,8.308162745524935,11.462741139634131,27.534020285733227,25.428551121518005,14.362472392970798,0.4494014188972951,1.2134973898161419,0.7552955050242186,-0.8212720561776926,-0.908637127546366,1.0034583838833282,0.9776561124047803,1.0165579275480179,1,0.125,0
3.5615,13.20095340139824,11.582934087435127,10.139085069289152,10.39869434575269,14.723555881078791,22.698720874141227,25.158275052492158,15.623603785538084,1.538333333733201,2.391414802535902,0.9436606329621026,-0.38839208442615053,-0.4835203176257776,0.34422978510634716,0.9543745274013855,1.3801739652299225,3,0.375,0
3.6615,15.591147954833414,12.305050041880795,10.210454939699195,12.00182897926683,20.55836610989629,25.41220121072945,25.39805704874726,15.721387502269907,2.4746900278610644,2.7704508991535977,0.9664970159973894,0.15553724359488177,1.184459408715715,0.8192949239288007,1.004220204402925,1.3902368971127765,4,0.5,1
3.7615,14.402456345221237,11.306785466966367,10.182248357443475,7.9726606257609935,16.550299910562764,25.3347868024466,33.08272576239858,20.004338740375136,2.0541302297256094,2.3898418081393857,0.973687848908596,-1.1530874271637592,0.12761132583592702,0.8751669277578823,1.9057830666375284,2.3543006244185345,4,0.5,1
3.8615,11.233189325197115,15.120007978088552,11.6927796463461,7.6163372583816455,12.618525156242457,26.80892868530695,30.643178556119807,17.720402581021236,0.8871609272868887,4.0884967953843665,1.47585579396069,-1.0863963599952797,-0.5371814828495937,1.0610363769116316,1.5331703899702276,1.5231845482280815,5,0.625,1
3.9615,13.57497131798703,17.583518739456842,12.361360152854784,13.927704928092064,17.952606752236647,23.7234051371764,19.479935383508536,11.57127882869897,1.5670766050516678,5.325333015578049,1.6996704110500624,0.8238954121838808,0.8098129087628148,0.5027001802726668,0.3030977325386354,0.3037921679961442,3,0.375,0
4.0615,15.808635542921174,15.87941863388834,11.140523410043738,15.223434207889825,17.718691631070943,18.562660211122214,15.73898021869157,16.17598607755563,2.519856297304804,4.487728565591399,1.2611780239965371,1.3121787575329165,0.7565208371529114,-0.1305877883081634,-0.11256420899339392,1.4053927341394847,3,0.375,0
4.1615,16.78619303768741,13.376389816300604,9.302310528146364,11.11213804813008,17.12883887947212,31.339804160855067,16.589621844202597,20.809898081487276,2.789713834204564,3.4073074369196474,0.7022966080658213,0.04280861009610978,0.6061972127503494,1.5032380045406908,-0.05106228754047751,2.500683049966804,4,0.5,1
4.2615,14.056456492234153,10.53541277502415,7.057749052178148,6.9417962450234905,14.33949717752972,31.66224718974365,14.007096539463125,16.332011199163976,1.401952386654777,1.94146742469,-0.08368681406639249,-1.2760820799215309,-0.3452865342673162,1.586326432899591,-0.5362411832108311,0.73779116198627,4,0.5,1
4.3614999999999995,8.011821975068488,7.6301773474917685,6.485074339695833,8.176840082292735,13.790696515544973,27.88655303915673,30.011070419404675,11.679092694220884,-0.24617363781534368,0.7998648291011137,-0.25107430617468185,-0.9772512000921456,-0.4491791387947866,1.1292034919559806,0.8335453841720272,-0.10743535164619239,2,0.25,0
4.4615,8.614183134362605,6.803445680118675,9.670793256638692,9.728646612305544,15.176368133471938,27.102552270278988,36.31160637492343,14.546371935211086,0.0003379935203808782,0.38680086486957244,0.7835340779208937,-0.312357854305312,0.008181369693063932,0.9283191258399577,2.1424732878620567,0.9219899450057182,2,0.25,0
4.5615,8.598640817072859,6.781748739253656,11.638461915339448,7.995717689787087,10.125744029439318,18.538188282462798,26.651844978531557,13.372200454328135,0.02257023199637123,0.360548093809804,1.4612496240845394,-0.8183401577762495,-1.1490537697601342,-0.1908469417175362,1.0867115997187855,0.7177572303830192,2,0.25,0
4.6615,11.305620317707865,10.207846413713972,10.564329021414094,7.424653531403009,17.527209028592736,35.19788357742848,27.612980637015447,18.645465087826455,0.9266181802197925,1.8673796875656121,1.086311756658788,-0.9692986546459532,0.3005243214422259,1.7381410531021202,1.242369873357266,1.925362121326588,4,0.5,1
4.7615,10.744065300090933,11.278692215077099,8.6856040065858,8.503005352993666,19.958786634692313,37.2103570745096,26.8897286297907,18.514694913435708,0.6595152953992981,2.452906853592352,0.5449038339509836,-0.6745963969151701,1.2297941896085245,2.229602520826616,1.1032392894154193,1.9272380019601372,4,0.5,1
4.8614999999999995,8.446151340019128,9.381318268793889,10.667506112806123,14.105144779159401,20.829874826927703,33.16689123001207,33.65959497400626,15.544119160955905,-0.03572489835875306,1.5795116447158966,1.0809369228641745,0.8348451348077348,1.383177573654419,1.7356523081282078,1.7530835920062244,1.3290928117800034,5,0.625,1
4.9615,10.349401482442573,9.242089536284803,12.154368465676209,16.743535439357196,23.877683498149914,38.47912590549277,38.300992318594,15.359295798457465,0.6389530919989618,1.5284791194547076,1.5482181269558886,1.7786508855209593,2.1470669083806717,2.574995826787569,2.4476922029125934,1.2520853325524555,7,0.875,1
5.0615,11.282233217760954,9.233642971888598,10.307606462778002,12.841071843092385,18.102132178354765,27.259376150439294,27.215239901590586,13.101616624072227,0.9942048051526704,1.5067985459447377,0.9429811807948473,0.4813189915572859,0.5964744330414963,0.6212968740698401,1.0790852319494915,0.7279659308517753,3,0.375,0
5.1615,10.780278711830908,7.186103051221899,8.1444334903168,8.189052065103569,10.477478057412178,10.789815644818539,20.200604330525366,13.86657412452657,0.8120062734263429,0.5551226599496478,0.30906274306796855,-0.7563636516966095,-0.939989801722942,-1.2087670957422867,0.42431418662214104,0.9216899130764381,0,0.0,0
5.2615,8.908670299880068,5.183289728301522,7.216811435973156,6.37222369489541,7.639901373994985,18.61314193700251,22.350322438430503,12.823524561524437,0.10267914598842365,-0.3186116357426006,-0.009142860916341535,-1.3342923567019573,-1.6880126807144253,-0.3015216709288379,0.6681993501761369,0.6660447056045055,0,0.0,0
5.3614999999999995,7.977258532439197,5.342854343886679,7.273554803912083,5.491449382277722,5.909371466680538,21.47751102138176,19.739029870482003,10.5391557101996,-0.18887568957321427,-0.259703010770284,0.05314472801220516,-1.577822657932454,-2.0619098332195716,0.28740279245336403,0.28757843579194936,0.13537142481024567,0,0.0,0
5.4615,11.406274928719808,9.748448072638428,9.748084296293614,11.806601551805402,18.281599494528052,34.37238502304295,30.41462255055258,16.924691366571842,0.926334570292526,1.5005637979133821,0.8141265796862293,-0.023892354160617666,0.24112799488880277,1.7050245942137903,1.254658851899331,1.4112024483018144,5,0.625,1
5.5615,13.710874158157077,13.199019326623981,10.412281073221042,15.588778879288451,23.190089625885907,43.06599065412619,38.96459809224015,21.362551158196325,1.8283899177051206,3.2736421942861686,1.0582166550072052,1.4764017899413018,2.007079371835196,3.302705975752762,2.6052555858834388,2.7560947542239633,6,0.75,1
5.6615,15.100515603760678,12.71776384138687,9.645344813211253,14.160520046642498,18.38225065879156,34.689684701052975,35.58607342362986,21.470114676980725,2.2891534435596763,3.089422456497796,0.8436959141318064,1.0490572366364237,0.8756292596206934,2.0838803507842822,2.2316505389293857,2.7966226774593133,5,0.625,1
5.7615,17.804086991350097,11.733173441075337,9.756503798842807,10.704371825058331,16.622091823397433,32.19343843746981,37.147012585137524,23.110142431883247,3.205238160505259,2.62952098685967,0.8602838318308531,-0.06644666251520406,0.5058475697674224,1.806185290708535,2.3906033453112254,3.164204624227768,5,0.625,1
5.8614999999999995,14.912939306603008,9.173098164819141,8.551597288300828,7.551648254573354,16.86113547954886,33.66948851269137,32.65728087155393,18.653472064110225,1.8874143868370876,1.0678965851412743,0.3978903188540861,-0.9971000596849582,0.574318886794551,2.038845310389101,1.7274928995659746,1.7526889484776178,5,0.625,1
5.9615,10.237820244187462,7.019365353740168,12.477750872868038,12.094291021045423,17.201701467197864,25.609716945783905,22.556087005361984,12.03355866703169,0.5745685901587865,0.34599985814893747,1.4293577859306583,0.1412172392315632,0.6602625842695997,0.8392203905294257,0.7028082793693028,0.4532846738681775,1,0.125,0
6.0615,11.276241131831725,8.981157364131144,13.439354271674391,13.006459491523874,17.978388396652985,27.34218028182809,28.86492585874894,16.97363499644172,0.9873600067604872,1.4009322999879807,1.9047298650080196,0.5300906162976972,0.8462710131397871,1.0202088703057288,1.3670824216211372,1.5961244302216955,5,0.625,1
6.1615,10.7798371825311,9.959326083565125,8.807040928919484,7.926625455564889,12.88933547087168,28.386424426276555,33.4637182648674,18.58950838361476,0.8208276179222588,1.7334999816871106,0.5028582716811996,-0.9846636668772552,-0.6629745104120275,1.1177731855382262,1.9714877386950187,1.9687870433692702,4,0.5,1
6.2615,9.643691549923266,11.965641488072865,8.764543065503792,7.756357970456155,7.198261417899151,16.329842587647008,29.495769511006895,12.989145542804541,0.37788315324776794,2.606164983192597,0.512658428825181,-0.9485082891314679,-1.7182517294410806,-0.792532236294453,1.4813390158037376,0.35197683732160273,2,0.25,0
6.3614999999999995,9.06315773441015,11.558594386541845,10.921675878169793,9.36706608093117,7.888858026935133,16.068937032320108,27.239423939430612,9.223319374812156,0.14628279083382192,2.5004720171000754,1.1935842428316463,-0.4010735647609082,-1.5191954215127064,-0.7468885748393774,1.2318253106272223,-0.2568723860681401,2,0.25,0
6.4615,11.638475529079162,10.332439118645656,11.407387478773682,11.041277616595309,11.155927212136437,21.772103760869108,23.559058201745962,11.001976271123636,1.0206397877537325,2.025084904766897,1.3617929027390618,0.08791596349395016,-0.8781278957750647,0.3648521340915831,0.705282420316422,0.261840408194305,3,0.375,0
6.5615,12.089963878535077,9.822205511609294,10.771786027846309,12.587304406933288,17.488776445722017,25.614672360310067,25.932545907329498,16.36794801050204,1.2475975098536205,1.781789452524119,1.1987749022865388,0.6040717383901008,0.6433685857430383,0.8902505528493125,0.8770960286236924,1.3487938798277304,3,0.375,0
6.6615,8.813324398736423,7.466074601574451,9.406485904098247,10.465385233799852,18.13056437163897,28.455708913017425,35.55962451962676,19.39545763864984,0.005621871609405114,0.6832431685146696,0.7461037108574885,-0.16274082358237096,0.8527020528364254,1.3282001686707607,2.1528935123938573,2.238628379658128,3,0.375,0
6.7615,6.8629633533015255,6.739984221594496,9.838130465570849,10.789704740342225,17.030218540889283,26.936771085501487,34.50446835919667,18.192531520586527,-0.651670053944083,0.37035971061644124,0.8578709658199899,-0.08597331203950287,0.6107504480607767,1.1122892928566523,2.07516770347268,1.9770852218684771,3,0.375,0
6.8614999999999995,10.036792224945673,7.401025274999114,9.231698871841715,11.355141044340865,17.10221244990477,23.67307460927758,24.891786994588927,16.89110925918544,0.3896280550433871,0.6896502965863343,0.6125142423662404,0.14577691243637772,0.6159788033148655,0.6313053451879711,0.846195488787941,1.6680847391938634,1,0.125,0
6.9615,10.130506724124524,5.806886320470463,6.870436469695212,10.50018780411404,18.900306791452163,21.921114289684,14.662777920291601,12.638655287231257,0.4050339843449847,-0.17450111044447145,-0.04830612376547732,-0.09981453936410067,0.9868286211501313,0.40298946601512853,-0.3225027175452235,0.5255903454546696,0,0.0,0
7.0615,6.8361389295476735,4.098185060890931,6.272805362226652,9.437201874316903,17.71916001313519,24.018140941815318,23.688236222785577,9.706938281072032,-0.712267172842982,-0.8581627520712591,-0.2744894833049007,-0.5377341999009743,0.6357169598069757,0.6931405955703686,0.5011912413169418,-0.0955235229093525,0,0.0,0
7.1615,7.111933638350477,4.9293663307308115,6.642790037310599,8.45090383756322,12.482609944987047,24.14604276917533,33.186105758273364,10.751796597372635,-0.5641920978877976,-0.4661680570555651,-0.16912950925375425,-0.7565768390738283,-0.4405960874596404,0.7162799013709242,1.9185874897485737,0.1988297116134813,1,0.125,0
7.2615,6.41617276639823,4.382763468357095,6.28314273850988,8.703510385410274,12.432346641225848,19.73019936210861,28.003214378986197,9.356963974788911,-0.829798970338412,-0.7300898639285482,-0.31033600412164863,-0.6476042381317929,-0.46496873103993425,0.03022943559335772,1.1381603688667472,-0.19572229652880416,1,0.125,0
7.3614999999999995,3.7355007883645097,2.7592797696341336,3.5888105272678157,5.245833448099553,9.116048652760044,12.058633568758278,14.19852051871954,5.409627657078686,-1.7015324179955909,-1.3943287435271374,-1.1174388424424306,-1.7792062273559366,-1.5257346948538244,-1.1423538918236373,-0.585593848909408,-1.2349598152191965,0,0.0,0
7.4615,3.3730097009012585,2.3421890651586534,2.691826643524658,2.6327049090654664,3.6033064113041826,6.208529136167987,5.013036465066999,2.8232444741739364,-1.8114598052497088,-1.570118978270289,-1.3622741374840328,-2.4441047123025466,-2.570899680218352,-1.7925863883079987,-1.3862228559324128,-1.7071194163908536,0,0.0,0
7.5615,3.0968194247166307,1.9301858039938058,2.2542258282452403,2.8920903814253767,3.3771371588284205,5.322811497094163,3.5962716335381213,2.608369846758064,-1.9524230286502242,-1.793392975340338,-1.542389070172684,-2.3676619172444533,-2.5853430443534307,-1.9213776019687805,-1.5571821543222257,-1.7711278478419683,0,0.0,0
7.6615,1.7071102008233348,1.2102597453416615,1.2069101477961155,2.6549814832794447,3.811049997706292,3.9353811862747374,2.2082668725024446,1.7245541877439603,-2.430280821379361,-2.0954888057322787,-1.8850339227681625,-2.4772954748368785,-2.4832263797777903,-2.1101740187269953,-1.7205937199979333,-1.9725892533392775,0,0.0,0
7.7615,1.4389951687980456,0.9652930558058901,0.7910950716599384,1.4331573030410618,3.882851910287722,3.605643712198115,2.0535881117873696,1.6226460251947823,-2.49327845868022,-2.195187348400108,-1.9716961288228945,-2.835100411510091,-2.4654199102431944,-2.1527685148528075,-1.7286247694816579,-1.9880028039335562,0,0.0,0
7.8614999999999995,1.3572131766312714,0.6803233534529406,0.8182458687238523,0.9265173336736242,3.2951108859057,3.3143053875975355,1.9141243764200548,1.4047578798346876,-2.5381364638666897,-2.358386237750721,-1.959633513240009,-2.957561777167172,-2.6056848015565572,-2.198956579800427,-1.7532807685022227,-2.0613560631311865,0,0.0,0
7.9615,0.9160692766034265,0.5384131473257823,0.9201612753231435,1.1668762480322807,2.589231159615539,2.4786524317189773,1.3212346372394541,1.220417399903902,-2.6708281429208505,-2.4156432893735236,-1.9320890519598755,-2.904889638023189,-2.779371997016991,-2.317064959161991,-1.8124429416209418,-2.093986701782188,0,0.0,0
8.061499999999999,0.9485153169767412,0.8139309133259662,0.9558225797253626,1.9006285136536494,4.331322273424527,3.304675330729501,1.632233789500669,1.4013406153103585,-2.654479369007074,-2.27661217611087,-1.9185631831031082,-2.6886789726684683,-2.4652928111268655,-2.2200364598162956,-1.7765346662119128,-2.040689377109852,0,0.0,0
8.1615,0.8514253804634938,0.7240638666958782,0.809720732432603,2.8747382555143335,6.522293455504729,3.844525780168558,1.3961597993662507,0.9827478638813608,-2.690395948681923,-2.3187799326524705,-1.963191190510208,-2.3928474129233015,-1.8650853451182412,-2.1219341024678,-1.81090259187968,-2.152530016953304,0,0.0,0
8.261500000000002,0.6238669634063171,0.6207811813638857,1.056460734749126,4.203341054305085,9.083397949820624,4.378106850479497,1.1763911418401527,0.7131565330312419,-2.775929777761915,-2.3590398012372877,-1.88798210965381,-1.9914771338322732,-1.277461287554967,-2.0546664149438874,-1.8287790563298145,-2.201461683825173,0,0.0,0
8.3615,0.3982416700356342,0.8884328382251769,1.0596536623621116,4.258442551388083,9.731919056799155,4.6975867490669625,1.5155528150326747,0.8835092671169318,-2.8487952026773673,-2.2342874144690845,-1.8908363469041252,-1.9672643956172635,-1.1225155914714733,-2.002731120098296,-1.7843406054499038,-2.159738125469903,0,0.0,0
8.461500000000001,0.41819352931103015,0.7978476403931565,0.7179220982025499,3.1470345756958653,7.687545864053036,4.959414921689069,1.516006076675024,1.0039098469869892,-2.8432469931927495,-2.2875177512452125,-2.0004939692091632,-2.2986615407021738,-1.6157352419440818,-1.9706856279057954,-1.7850103244693911,-2.1301182754327694,0,0.0,0
8.561499999999999,0.4563591998252829,0.7338207521230226,0.7495610514081179,2.139869672268153,6.594563718063728,5.099505998636153,1.271431606338046,0.9672400263555253,-2.828264302976253,-2.3142549454864816,-1.9855735246867516,-2.636895299159552,-1.826880912162022,-1.9538949202926141,-1.8143197622234672,-2.1402826719301036,0,0.0,0
8.6615,0.9914930329649887,0.9963190823180287,1.164229111665067,1.6967290153636578,7.4327626716476205,3.975048469668618,1.2830514977491112,1.0267589148852545,-2.6870092095736795,-2.1819168452996793,-1.8548598092836803,-2.75449124256709,-1.6355701329227,-2.1153669842778426,-1.813379863252517,-2.1292870760656126,0,0.0,0
8.761500000000002,1.1847055832393485,0.9879112216136194,1.264993266484565,2.9897163678685215,7.634962713910933,3.587259931807445,1.4401989801416093,1.1963009179879087,-2.5939560261279717,-2.184688539752179,-1.8194437853155332,-2.3734029496105187,-1.6004377391776798,-2.1710966414387687,-1.7938862821556874,-2.085292438517134,0,0.0,0
8.8615,0.8450830162599111,0.8789867956594433,1.3428014094586154,3.513124621360102,7.569165371845403,4.843018945309352,1.5950938991651018,1.6876774481121481,-2.708448355845262,-2.2337843115750013,-1.796978213348052,-2.1864625011383336,-1.6676833690197304,-2.0109563031103357,-1.7756484345501988,-1.9784700622759066,0,0.0,0
8.961500000000001,0.6224458993338968,0.7688444932550548,1.3175110571925286,2.771471426787308,6.600467664146129,4.815582801474822,1.7185529526696408,1.8066691519702072,-2.768675036196525,-2.2891795446654277,-1.8099351585093881,-2.433689523106884,-1.9527618003979785,-2.0019059356946824,-1.7609087235257501,-1.9466749057880053,0,0.0,0
9.061499999999999,0.5863548236329729,0.6419212655960164,0.8848890950994783,2.3059213289211873,6.274777731448868,3.2630111576620164,1.3678022100972576,1.2667556579891142,-2.7806913607794796,-2.351063660328524,-1.9527788234479582,-2.5411160001347226,-1.9629839512612615,-2.215994625030641,-1.8094113560562501,-2.079559371080558,0,0.0,0
9.1615,0.7176067163764082,0.9486496941461705,0.7999480867866993,3.1114347785372156,10.404077865867176,3.4155128265792705,0.9299093434021459,0.9346963182436803,-2.740381114162598,-2.2286846844348407,-1.9705265419163516,-2.306219288668536,-1.0128209096263527,-2.2022928296546898,-1.8534279263755769,-2.1469747872704685,0,0.0,0
9.261500000000002,0.8387939535116335,0.9356802300053269,0.7347455080700769,2.8659945568253202,10.199647082744656,3.5325269331697817,1.0886175194859322,0.7664421200484249,-2.6933114030325593,-2.2282029672049446,-1.9988403973517128,-2.416237573372833,-1.1079513447997378,-2.176134627578671,-1.835855381198922,-2.1940596994437813,0,0.0,0
9.3615,0.7454678984727311,0.5062874039642902,0.6432617288206214,1.9164650200914317,7.984324938059442,4.641678096300592,1.1269705689081502,0.5879017888023541,-2.727088946483176,-2.402351069198679,-2.025241602772959,-2.667603555538457,-1.550027853369785,-2.055501777828447,-1.8313067040511743,-2.2299640585936906,0,0.0,0
9.461500000000001,0.7500160862013314,0.6312016161351773,1.072615376679394,2.66789555810519,8.578213685153539,5.899283479505292,1.2268519687212838,0.5710476460976895,-2.725936358616457,-2.35745658171245,-1.8886422693213967,-2.4509445234943392,-1.3860097958752038,-1.860132409582085,-1.8204052634910972,-2.2348831507461586,0,0.0,0
9.561499999999999,0.8034041039603177,0.7613051887894624,1.3204420184147192,3.091944315891243,9.710500243302533,6.008153933181995,1.3482200147727077,0.548274253036239,-2.7052056164551788,-2.2837750044995633,-1.7965228552449506,-2.295599950461004,-1.1618846170395947,-1.8506307066180632,-1.8040387733860876,-2.2419432218832025,0,0.0,0
9.6615,0.8786065273463516,0.8274827429348163,1.0929427813956505,2.4822213398314443,10.625697987899725,6.370256204366822,1.135391522331012,0.6260235674766685,-2.680653106385835,-2.254601594549128,-1.8896571465572054,-2.509265361351571,-0.9482293499633243,-1.795285282926436,-1.8320726087302097,-2.223146435060564,0,0.0,0
9.761500000000002,0.7993202324857513,0.9973655411859922,0.673308058440474,1.5146885406043151,7.621968884636282,4.889088241910224,0.7650170984870123,0.8182982032679361,-2.7168759540819694,-2.1841077739211685,-2.015962934087646,-2.8034640047631325,-1.803309507174311,-2.0688016051547122,-1.8770997492611434,-2.178989804475723,0,0.0,0
9.8615,0.7311228430211615,1.4299108385345853,0.8845801784668841,1.093985816967873,3.807412587167877,1.8853735187539022,0.6649893786163833,0.9947974234867761,-2.736583464092444,-2.006224105088107,-1.9516708493607222,-2.910143176509058,-2.495826548402276,-2.396872452700554,-1.8856462690368339,-2.133904950041189,0,0.0,0
9.961500000000001,0.7194113851424981,1.3286614291292946,1.127292713720527,0.8224496551580253,3.13745196928922,1.6706536586156888,0.6099939006220243,0.8664110472880899,-2.741495709786875,-2.0737747379473883,-1.8577444857133205,-3.031962129454162,-2.6921738490390226,-2.423925824438392,-1.8955396185825544,-2.168609107672328,0,0.0,0
10.061499999999999,0.49741285108310895,0.7544036188102792,1.122117993763062,1.312586180036793,4.524852865481994,2.944353427024288,0.4282323294564599,0.524323896054229,-2.8128963689135555,-2.297119495280811,-1.8605836878850195,-2.94088370301851,-2.476764209546049,-2.2846868072287596,-1.9148983447555523,-2.2530793768293322,0,0.0,0
10.1615,0.5269251245373645,0.9627601452535849,1.0768276291455734,1.7521481913564119,6.8258920673427586,4.262685587362028,0.7001998677609548,0.36860455419386423,-2.803494249954412,-2.2076602946091395,-1.8763082924989365,-2.739651870360855,-1.8377958479698222,-2.0724420800653234,-1.8854447305010944,-2.287070971965177,0,0.0,0
10.261500000000002,0.6710171328870737,0.9120203401982039,0.9084649497963297,1.4209095550136506,5.807282038005313,3.824309712647465,0.8518405835044385,0.44869571450336504,-2.7527875244375433,-2.2341253575134212,-1.9361346644541428,-2.8313291532149414,-2.115234801724606,-2.1393990381304913,-1.862534255206842,-2.2659584629377325,0,0.0,0
10.3615,0.8593380545419693,0.5708460241456335,0.6026868617286602,1.2100498375061992,3.2385021092591395,2.46471407162945,0.8673288120478984,0.42943179679729165,-2.68709801261562,-2.3687993434505494,-2.0322048828377355,-2.874295904645422,-2.616585023965267,-2.3165618800375487,-1.8606221801090819,-2.2697819285313825,0,0.0,0
10.461500000000001,1.001958502575317,0.6474574665084502,0.530078975481446,1.393900599621834,3.605489941336099,2.1566299182646795,0.904949139210863,0.45102990574918855,-2.6349268146316507,-2.3371268193964103,-2.051479206089049,-2.8154230121174066,-2.538441520156597,-2.357463605639461,-1.8560310172634202,-2.2670942960691742,0,0.0,0
10.561499999999999,1.0351320035982652,0.6686241691363816,0.9399799916258761,1.4125674012150706,4.367608933179149,2.663243841136719,0.7969176485315859,0.7394395687253374,-2.622511716686713,-2.3271391726610715,-1.933684648801442,-2.809603797530645,-2.354019068378092,-2.289555056137152,-1.8699243557990368,-2.200075892290655,0,0.0,0
10.6615,0.8518482883104721,0.6153067055883252,0.9964424710595762,1.2302449859112208,4.352516242225285,2.506399821049706,0.7228129911003642,0.9176787819138499,-2.7014192469210974,-2.3499138345286985,-1.907441376704341,-2.86914430046529,-2.3623737616207596,-2.321096284889899,-1.87832553114717,-2.150212447480114,0,0.0,0
10.761500000000002,0.4906792974005696,0.7172717225213481,0.9344746838349588,0.9740776988722508,3.1655000100780395,1.4591754386939548,0.785767973150489,0.9523259408286135,-2.831785469344437,-2.3043866012805148,-1.9274340283561677,-2.9509081144191636,-2.686008744027842,-2.465302174414998,-1.8714620583608357,-2.1438613285655066,0,0.0,0
10.8615,0.6436492823147414,0.6559749931036349,0.8094362378557323,1.0956243570568858,2.3924971375480206,2.54104353260047,1.3791364550762535,1.1557319144209737,-2.7927071946402138,-2.3384888518517615,-1.9869572199313523,-2.91634974014061,-2.838816918367682,-2.353964596541984,-1.8133404559061084,-2.0979700142655697,0,0.0,0
10.961500000000001,1.04090858021072,0.9034779618740231,0.8304079154724135,1.5061791023744164,3.8296641000002136,3.2001608286979146,1.9799404567712888,1.2958266000709278,-2.6335249071232187,-2.253574791523232,-1.984662911099508,-2.7845106957631653,-2.51381345291431,-2.2331958533039638,-1.7320576266807415,-2.05910183921609,0,0.0,0
11.061499999999999,1.3770399060425893,1.3505530446995646,1.4238909480358735,1.551348544062573,3.8680539371212435,2.4272924565852914,2.519953169208456,1.3223954117204342,-2.514323792142519,-2.023814507335966,-1.7783644142105326,-2.7762482753077053,-2.49898932129228,-2.3477653992607204,-1.6678855057455007,-2.05321449629709,0,0.0,0
11.1615,1.9286625759794962,1.2606734179108992,1.47421310794433,1.2065806775978491,2.673953735973398,2.85373319723966,3.349991778958598,1.6632736769272913,-2.3262631232483524,-2.073378091127893,-1.7528046342976407,-2.8957718586142045,-2.774787649064658,-2.2886164062895484,-1.5727439154057117,-1.9784674758761847,0,0.0,0
11.261500000000002,2.6176088917477256,1.8031888218347583,1.956575018603107,2.6624991371250464,6.102794286975158,6.273859339374192,5.583101450652309,2.371680382202762,-2.0803917878633014,-1.9135910316649853,-1.6386024315055627,-2.577416096364118,-2.165892058465105,-1.8548950837242304,-1.3373623916551454,-1.8147930756975654,0,0.0,0
11.3615,3.343143920623861,2.5569263984770827,2.883366088827779,4.072045028842003,8.514672053431845,9.893957776670009,8.135084695247281,3.3965574909013583,-1.8250229064658368,-1.518559605580978,-1.3193331051208375,-2.0352256497477814,-1.4198036734680317,-1.3040275824720857,-1.0168304115057811,-1.568984806235004,0,0.0,0
11.461500000000001,7.455132010762099,6.655533225970234,7.928498417169788,7.373993462246654,12.411709179521837,14.487343978427637,15.943174990418623,8.646096466217537,-0.7533676041623927,-0.24443082062706697,-0.16203651921894363,-1.236217063805724,-0.6818674434248646,-0.7172333650527358,-0.267704657097746,-0.6417319228095479,0,0.0,0
11.561499999999999,12.533511330752765,12.67525195888278,15.886006390895421,13.776295355326114,19.41077842055686,19.142498005224436,22.65145322611984,16.123259114535735,1.1407227620086746,2.634052337954883,2.4544237991849895,0.7005464306445621,0.9774591839110883,-0.07484465200582549,0.5774392224286965,1.2326647340077295,4,0.5,1
11.6615,12.302659186593178,13.999730939291462,18.958732433976433,16.81776105799345,19.756715750038087,25.650033824940742,24.951885297120985,18.22246739537277,1.1688633446916663,3.6498012635848016,3.7989914055998675,1.9112525505389022,1.199970525818597,0.8100166126070251,0.7910534276381023,1.9412933417286071,5,0.625,1
11.761500000000002,10.708408840641043,10.34642942174437,14.958959865018828,14.385754550818062,13.408964919167357,30.099332792370095,36.98282588824836,19.760264088515427,0.733150382499609,1.8983375696073808,2.3417299403077148,1.0960325474287131,-0.3200771182962749,1.5099976277601512,2.1062827495840795,2.2896786657325823,5,0.625,1
11.8615,13.305362830796337,8.971134131995782,11.958227967827717,16.14853485085067,17.24055098378686,31.881968827863727,41.69470131224223,23.809512309504644,1.6829667933163057,1.3353995035042345,1.4928648982340997,1.5396686864645621,0.34511960140740433,1.8026292695711785,2.9418069434205587,3.3463097414053324,7,0.875,1
11.961500000000001,12.398799219251996,8.471281404678503,13.046064515971509,16.84257296934729,22.802995679233906,30.979780653690494,31.69266184683498,20.389857625658887,1.2843358209193687,1.0865064804563562,1.904249935202107,1.808853205520186,1.9462671289796842,1.6585885032531007,1.6968562500239182,2.271198075382335,7,0.875,1
12.061499999999999,11.39763752060532,7.136515689846784,12.7677329278467,14.124254870561787,23.560234626911974,31.928010636002575,35.496645523468416,17.94844269971647,0.9338663405625597,0.544146326157387,1.8276469637771207,1.0530058710899015,2.1864609009229463,1.7517731603924787,2.033914284059532,1.7262729463779278,6,0.75,1
12.1615,13.328867564000262,7.4341115030046625,11.610196237417217,13.191885089016314,20.7160247799513,32.289477787782175,37.27463212247615,21.79204402053297,1.6343814521459676,0.7074537400165839,1.4440475402515158,0.7361816965690102,1.4431224171480082,1.8080288327343077,2.2839271874519063,2.783379615035167,6,0.75,1
12.261500000000002,12.416228125127324,10.793330235840388,11.414275470573113,10.981716210923597,17.451646700913944,27.986822078567418,24.6493960506185,18.576221884716766,1.3095262186394556,2.020228296296093,1.3901705367129489,0.08343889733501728,0.7197835373062662,1.2464194660252688,0.8190719748624403,1.9385881409341041,5,0.625,1
12.3615,11.99198354912432,12.961170994845757,9.726312550125371,8.470841183836201,15.153418524033796,37.11782493308661,32.44903759207613,15.21324613424882,1.185575601350383,3.157395892974817,0.7315983286151098,-0.7569384262678917,0.12507264540942675,2.3268732125251543,1.4946968210544889,1.2699464587001916,5,0.625,1
12.461500000000001,10.1137960693993,9.584927774429701,5.606913520871073,5.889372452243575,13.142578678956585,43.813577682323384,46.63236011494108,14.349484895924581,0.29341473283697495,1.296870436745656,-0.4973523081037655,-1.4594091200528068,-0.3001228344484823,3.3963099837083353,3.3670089570955652,1.0017934279010101,3,0.375,0
12.561499999999999,6.892133340642021,6.503149661605172,6.948188654544922,8.706405305052483,16.579602594893792,34.88581168206739,38.19131803068375,10.006438571468163,-0.6109714503464273,0.19902958825558892,-0.17715817611013324,-0.7148042918268979,0.4621769841360117,1.995734233951195,2.0313060918153316,-0.021293872788550022,2,0.25,0
12.6615,8.170028622503668,8.014166922624025,9.399422922112828,10.378241234571831,15.146433541070836,20.64991353810565,17.420584721167522,10.155864282495973,-0.1297813132407942,0.9713518348851395,0.7085179751294481,-0.10409503098884448,0.03947082629415224,0.05693501703896392,0.03919683764812409,0.019164371492297046,0,0.0,0
12.761500000000002,9.14545096824615,7.553187430013005,8.56233121984019,8.244336981090479,10.243119483150785,17.792869107746153,15.453181203339902,13.274355371694496,0.20269485085938796,0.7559941334106292,0.4504805211213633,-0.8111123452695598,-0.9796590292175671,-0.23142443970950705,-0.15225200376877943,0.791438448535623,0,0.0,0
12.8615,8.3031352173427,5.61708774943229,6.422467184856233,8.078104498833202,13.534017447725663,25.138253780934118,21.520796452923665,14.626997136319769,-0.1359964566676881,-0.15088889852290038,-0.21875539179471923,-0.8292938178013358,-0.29080654425965424,0.801556613604308,0.4562858657746294,1.1411902182599427,0,0.0,0
12.961500000000001,5.585836799181189,4.067844016701024,4.5879424607578425,8.560899762700062,14.194194665778907,24.63809610874792,24.38741491620011,11.826649304740728,-1.0624843288012753,-0.8101777874364429,-0.8840730918300771,-0.6446907560032296,-0.0746645797477055,0.7336704382540188,0.8457669268277139,0.3496631145904935,0,0.0,0
13.061499999999999,4.222169207225793,3.3156979873932393,4.378600544964166,7.028870535761666,10.294151859330107,22.50464917334597,18.580301208278954,7.885241547849233,-1.5137057721275158,-1.1479498809269812,-0.9164587813731572,-1.1120418609924219,-0.9786848857358582,0.4366862589000033,0.12898802199704598,-0.47872464316049596,0,0.0,0
13.1615,3.879354309249648,3.0627852113971965,6.3913787398777275,5.3153034256678104,9.58242740845243,34.69435278137239,21.52255905507336,7.556134936072639,-1.6279669641638461,-1.2570315060637265,-0.2175106902380746,-1.7091251818699182,-1.1449438862417316,2.0123883873611685,0.4575125038986224,-0.5693952383918046,1,0.125,0
13.261500000000002,4.548361960459807,3.543792498797953,6.815318237542893,5.566409955597534,12.146366284892757,36.15552911593738,23.51690729260034,6.17755581932263,-1.4019654667288446,-1.0354638441790045,-0.05202059248409787,-1.6352147178707879,-0.56037305690605,2.1369555225672903,0.7637511741792072,-0.9444719683175531,1,0.125,0
13.3615,5.810973681639276,3.710377639337893,5.846159742189431,6.181219075105116,10.957435254544727,21.421277384429438,18.711314198671847,6.010955141961618,-0.9489347764509773,-0.9484595843796775,-0.36861160054010883,-1.3799801693713303,-0.9203361396608041,-0.19382934668132962,0.21952427579990214,-1.0007513152831273,0,0.0,0
13.461500000000001,5.696164315376237,3.5914176806656877,5.239816289392331,5.259468190129997,7.507163204719548,14.041978493860912,18.08068547792136,8.555480615685443,-1.0109966437069127,-1.0113195453848633,-0.5577746581416344,-1.6482426925153657,-1.6168750332763921,-0.8006514699558935,0.16639986037530208,-0.376435688877165,0,0.0,0
13.561499999999999,5.822813315484164,3.9594418178797315,4.923638259076327,4.77728479245864,7.6136153209715305,21.489639972990027,22.124602882971406,10.654241155639333,-1.064393774076173,-0.9335921958471107,-0.6894137904416386,-1.8584967908050671,-1.6288410758276837,0.29638779511621566,0.606942230485061,0.14855046570834152,0,0.0,0
13.6615,10.617572214917843,7.954553679097379,8.759563249499783,9.46052276328965,17.474570295208615,36.420535014223056,22.507513261438405,14.595124002514869,0.4585070758266795,0.593004208515935,0.28906969834854346,-0.7284776884578839,0.2082387102006462,2.2126623648743635,0.6558893802785793,1.0295610836244213,1,0.125,0
13.761500000000002,10.571269827497039,9.356270586818766,12.01227634642307,14.27931870312874,22.500962556325735,38.856583792551426,27.59149814849169,13.59296605422305,0.5051562886596824,1.5638033197756303,1.5793441998256355,1.0558424193767357,1.89663328165662,2.655131648193836,1.174522512358334,0.716839476137779,5,0.625,1
13.8615,6.436050038342672,7.301155449994539,12.125864866411362,15.135199007818079,18.501405456842928,25.87239854906513,29.711948339442095,10.031426810100712,-0.746348460228097,0.6400828973781688,1.6251694304188797,1.216755675181731,0.7699055183112781,0.7450095294433801,1.4814007816397066,0.010154027382430058,2,0.25,0
13.961500000000001,6.026092409580422,6.038960654401868,10.863184840773357,11.615997937097893,12.367689215254027,17.84435018399192,22.912598359663104,10.376300960035088,-0.9331393936555091,0.08902874666811086,1.213665437856757,-0.02319379157993908,-0.8068750297873781,-0.38546294463875325,0.6775542652095181,0.08714838794312962,0,0.0,0
14.061499999999999,9.083623259160786,6.6016297081792965,9.34531621485493,9.722291732127088,14.078382837263161,28.42058935339799,24.07107036774143,12.56994253891306,-0.029721344665494552,0.3206759580232238,0.7340100521318351,-0.38834255063570117,-0.3370725112141233,0.9206685921846244,0.7715934421725216,0.5328793405709966,1,0.125,0
14.1615,8.680524891793192,5.494687623882446,6.615330939897292,8.463684217551084,13.758256598639921,27.80546971230825,19.60321213712111,11.073456461749098,-0.28534879477708097,-0.4746916568861899,-0.35503088322944343,-1.0128565749258747,-0.40955980576105644,0.8230019979131765,-0.0907233073384889,-0.15264995250112703,1,0.125,0
14.261500000000002,3.204941735509011,1.9271611715495243,2.4445133067408036,3.084775421255851,6.021464345770253,10.810581661820656,4.756628969594929,3.244396519872153,-1.9963508315937473,-1.8525978233295493,-1.542091032290442,-2.3389732716437646,-2.1152637588667593,-1.375726101239206,-1.4475571374182103,-1.7479149386543218,0,0.0,0
14.3615,1.4520412447263287,0.9885894723722386,1.1011952160213814,2.0315239160450793,3.642353863852162,4.429505689940959,2.8444943888887546,1.4023275002697604,-2.5052275592509585,-2.205151049628885,-1.8878266923045175,-2.6776323120764975,-2.525835686564061,-2.0525729029543918,-1.634348603160521,-2.0441827701622843,0,0.0,0
14.461500000000001,1.084860540041218,0.696665211373285,1.0530556782465614,1.2945556624886796,3.802220084259318,2.90776406071653,2.7859823051538664,1.083399860680042,-2.6150958790316463,-2.3128166096717857,-1.8900827835089684,-2.882742429612749,-2.4906680777360912,-2.2983361436118663,-1.6389831019896641,-2.112302040951112,0,0.0,0
14.561499999999999,0.8983040615929162,0.7338237057687056,1.1420139384066166,1.6217460860242388,3.820449173814846,1.624879570178233,2.465918245065152,1.1758190627051572,-2.7024201227405853,-2.2942086545815794,-1.8640861019236539,-2.7810684945106328,-2.4963853977185306,-2.432035122870046,-1.6980199165142986,-2.09007889334971,0,0.0,0
14.6615,0.7847492385719678,0.7283112219770461,0.7883535426302982,1.4469147145758605,3.398835196125612,2.11372923975495,1.085226637724273,1.012947065702068,-2.728009252636143,-2.29767562666683,-2.008466188150425,-2.8280231781902256,-2.6045835415426524,-2.368645035326394,-1.8592541907988016,-2.1392004355973118,0,0.0,0
14.761500000000002,0.8640370718593321,0.8318320692610749,0.41840713365763316,1.022696414112863,2.534969417979744,3.2297326921293212,0.37286559967147115,0.7003207253066844,-2.688845246297742,-2.252375132220262,-2.089240943946815,-2.9283860816299994,-2.785225592260988,-2.222246263675357,-1.919535390983496,-2.2036144046261357,0,0.0,0
14.8615,0.7825939908468414,0.9474431207352804,0.7617248865116114,0.8343170749572959,1.8408363669535672,3.0129921296672695,0.3794699096099492,0.6775706204422325,-2.7136876522866684,-2.1976727767419266,-1.9852612055245458,-3.00692742995073,-2.9918310840229037,-2.2681996282906907,-1.9188523235784474,-2.2082819627188526,0,0.0,0
14.961500000000001,0.8134021969593511,0.7721100124674963,0.8610270760513952,0.5631516010053168,1.9115277126967087,1.423215500320138,0.6202495490929332,0.6999285015703148,-2.7012191792096805,-2.3046028676186245,-1.9436862989552477,-3.085675252507524,-2.9867697251709484,-2.4694603511742006,-1.8933082839202056,-2.203854065126364,0,0.0,0
15.061499999999999,0.7231125851391573,0.5532581957462669,1.0078954642920719,1.1867844291371161,3.5033116111012705,1.4815049330962673,0.8339374124259368,0.8846310356795647,-2.735086804207861,-2.3920105295055585,-1.9039159916756996,-2.9186740362890604,-2.5890216737105978,-2.4603055365145763,-1.865875162099243,-2.1608298002347226,0,0.0,0
15.1615,0.6177758512504303,0.617001204699331,0.9928795087531945,1.3879216881756316,3.679944954851714,1.6900871969104279,0.7492724186569154,0.7843450762532097,-2.772148258998316,-2.3564195211780365,-1.9104932211181986,-2.8250425990096666,-2.5436761313299807,-2.428217181525586,-1.8776229449822237,-2.1957933009123956,0,0.0,0
15.261500000000002,0.5828268836767836,0.5133087441825767,0.6886004447374434,1.0600976303640874,2.738943579006416,1.843756271615895,0.9653796202526554,0.575611332999183,-2.781823435623212,-2.4033087875576955,-1.997921118148038,-2.92936021669494,-2.7735623716737887,-2.418000628451878,-1.860941330202594,-2.241189331958203,0,0.0,0
15.3615,0.5838972677108903,0.6160590104783215,0.8769842539723218,1.3053159082146963,2.9904431852122633,2.4848109579524933,1.3106130387239845,0.8601945003725022,-2.782379967175536,-2.362465891180994,-1.9447697499885999,-2.8615150839706205,-2.7085671966410727,-2.32877097823509,-1.8134550633263147,-2.173658890721795,0,0.0,0
15.461500000000001,0.45457100739429757,0.6437742020060262,1.092954422398864,1.558284617931817,2.824068515755045,2.1534784827017717,1.4184165314637083,0.8538978609988677,-2.834563137732485,-2.3487703278685963,-1.8678759966434046,-2.7648874300159973,-2.7510000016434946,-2.3832995207075216,-1.797378846044471,-2.171900841714192,0,0.0,0
15.561499999999999,0.4384798005075664,0.42724241836506294,1.2066373592680169,1.4826452276177513,3.1989061473177354,1.349823125420092,1.3985402507512852,0.8119375595379781,-2.8421021941112357,-2.440187002041256,-1.832418195458205,-2.7919908491349683,-2.672965152451112,-2.469946458479944,-1.7989804212351823,-2.181586556075428,0,0.0,0
15.6615,0.6057570298169741,0.41772571410650294,1.0763854134774813,1.8130530134791967,3.4763780217706746,1.589637275329624,1.084654667742433,1.1149611694981023,-2.7795173129237556,-2.4408974867826316,-1.882003391771088,-2.7014609169068877,-2.5743478187414426,-2.4351477553474843,-1.8401486502713678,-2.106785564893707,0,0.0,0
15.761500000000002,0.7230582327536652,0.8255244319882976,0.9895412531166634,1.694692637625968,3.095061955629297,2.376998163257203,1.0056165289102468,1.1031154425246914,-2.7346282105800945,-2.285774114183087,-1.905990542600961,-2.7475059268349558,-2.6644894925543845,-2.343310272136519,-1.84749142372334,-2.108830266887641,0,0.0,0
15.8615,0.6163288161376337,1.2120519832234802,1.1665778774832898,1.456043973310022,4.941942055816202,3.9452993622913595,1.2985254569243068,0.918289626518669,-2.782949705563864,-2.084865353126174,-1.8452549380881478,-2.805834338607751,-2.270434764529653,-2.1292628592001592,-1.8104373142854586,-2.1526305527429765,0,0.0,0
15.961500000000001,0.6829831503414879,1.1924368326744594,1.135001262395431,1.925657773177387,5.384692888840242,3.729072581412506,1.2238266888991192,0.7097068454678506,-2.765698678462414,-2.0916779137836996,-1.8564034715609024,-2.6563579724374575,-2.133139173306361,-2.1690952226576345,-1.8202310579667127,-2.212686910154031,0,0.0,0
16.061500000000002,0.9273049591878987,0.9423585310206101,0.871929331296681,1.6923989531631172,3.567912207229691,1.8452674027078009,0.8797195732951373,0.4536272439308998,-2.6627384045606677,-2.2038974719598428,-1.948830417161023,-2.748191338990074,-2.608487333970384,-2.4117878881196555,-1.8626633276859166,-2.262136437906011,0,0.0,0
16.1615,1.009076710795427,0.7968097684663881,0.9988654231487187,1.454390558339117,4.638181674959976,1.750023427740896,0.5088851862208543,0.44647096889091153,-2.632409680204238,-2.2694280041495656,-1.9183275417965484,-2.8073478389588353,-2.4078522264917304,-2.423227361319112,-1.9136171285356838,-2.263829240540435,0,0.0,0
16.261499999999998,0.882075246996943,0.7031574595999116,1.1268104170967714,1.4400998013264779,5.504505111963763,2.7823226731052695,0.5544099735470118,0.6238901145525553,-2.6856060693985477,-2.3120970562285597,-1.8682389480973591,-2.8133013899544768,-2.096703438187665,-2.280642752538831,-1.9099095799531363,-2.229004721715649,0,0.0,0
16.3615,0.5958766735838956,0.6031563284541382,0.9523302086534877,1.160329004945954,5.575439550831287,3.648725362062553,1.0448194255673833,0.7686764880048452,-2.7822304693716786,-2.357745520566806,-1.9204408985462944,-2.8878639778182005,-2.079455825080908,-2.1524235446462017,-1.8449609351741545,-2.1886977117827295,0,0.0,0
16.4615,0.547668362230436,0.5003275349207671,0.8240426176484876,1.1634854892274888,5.093753011518253,3.2588610649162177,1.0502055409926443,0.7210680595574861,-2.7984555519074235,-2.4032404434320638,-1.965244362629283,-2.8859263653203344,-2.2305169408085095,-2.219610266031975,-1.843600598953755,-2.1998853209198077,0,0.0,0
16.561500000000002,0.7236006516220352,0.6225918135084153,0.6311766738739717,1.2076015550594152,3.242647904018818,2.839969562458341,0.711031229218626,0.736055902217841,-2.7393931866329324,-2.3650496564449743,-2.0291611295451886,-2.881748431019288,-2.6220742933029664,-2.26671270283127,-1.8807581766708668,-2.195278909250776,0,0.0,0
16.6615,0.6847859440794121,0.7912230703699638,1.0991170783543909,1.496474335203336,3.032681912914181,2.9488793936665156,0.6408572981509313,0.7454696309716945,-2.754204464901152,-2.2859209285469206,-1.9032646755560165,-2.795045232245765,-2.6676186385111866,-2.248709358835967,-1.8872404074319364,-2.1924156936710575,0,0.0,0
16.761499999999998,0.5797673555599128,0.7414235859714581,1.2326852221526903,1.429563889712536,3.277920388070321,2.663805083198997,0.5513033714275674,0.7866847038032014,-2.785343215064484,-2.30077216689692,-1.8397193697531893,-2.8190458970617613,-2.61345223935257,-2.286474344530305,-1.899379759186983,-2.18299866844018,0,0.0,0
16.8615,0.6379140962413822,0.7557500750393508,0.7500145858297753,1.0469785494498485,3.1929556385855893,2.315011368990792,0.8212343076746315,0.8492657046348554,-2.762886612525904,-2.2886191267901874,-2.0022704647465925,-2.938515129180638,-2.631460401477946,-2.3434626553771953,-1.877116867862483,-2.166527323147337,0,0.0,0
16.9615,0.6504209874362987,0.7926885647786841,0.4381311687920593,1.1267343849965807,2.8312806616686634,1.4826978062717362,1.2221687785998085,1.0407448894065112,-2.758127339066578,-2.2686368346193784,-2.0761168288437175,-2.909546525576206,-2.712130586270561,-2.4654186857927196,-1.823295084608839,-2.125097656553895,0,0.0,0
17.061500000000002,0.6705099985721529,0.779363176493756,0.46308339592157266,1.199222301728414,3.1810313899358236,1.8036553044455248,1.144917767249493,1.0869398034798257,-2.752015436010506,-2.274292104262349,-2.068087428099411,-2.875615726745882,-2.6352191390051707,-2.4266003447048363,-1.8311138424465145,-2.1119592290220415,0,0.0,0
17.1615,0.7827377870550268,0.8381755402272715,0.6034428812709873,1.0615685865291085,4.698360101726807,2.1510358895035964,0.7850665996244346,0.9199533716234991,-2.715636979395121,-2.2472680789070707,-2.027369642080667,-2.916451962963087,-2.3043171113359624,-2.3590555972773815,-1.8711424169076323,-2.1498913343368344,0,0.0,0
17.261499999999998,1.1101981013954607,0.6769557551724116,0.6264870459905153,0.8966428151160951,5.0839961840407675,1.435490009862158,0.5563946546652866,1.044480063401789,-2.6032032504244342,-2.3357419878889,-2.0184474577629663,-2.9755551366211006,-2.2105408060427676,-2.4838558246178586,-1.9010809859024074,-2.122356525119594,0,0.0,0
17.3615,1.1556320354062573,0.6054510536985147,0.8011832105862602,0.5803322745292568,3.342840522530801,0.5587719176085192,0.5222541426505236,1.078520377402336,-2.583502931652532,-2.3677981140498425,-1.975349338410136,-3.080528516869384,-2.6977821677149105,-2.583745487763309,-1.9110413790530094,-2.113572404629328,0,0.0,0
17.4615,0.946916310198519,0.8674422523116653,1.0350846404170957,0.7900805864519029,3.6595727531144453,1.6451697634996774,1.2719052827274635,1.204049686724048,-2.6550040472070617,-2.24582039789227,-1.8911370369960414,-3.0442280543936113,-2.6553821541513463,-2.4742067708202207,-1.8341042186994365,-2.090768089523111,0,0.0,0
17.561500000000002,1.025368164676583,0.8053025662449452,0.9376325883746153,1.6988862898025752,6.0797160797706296,3.319819758072508,1.545404250586513,1.3623998167662417,-2.6303773341021444,-2.278046393782433,-1.9229789798998882,-2.7658563610340057,-1.993906769453002,-2.221639860465314,-1.7823191759247268,-2.0512543721655785,0,0.0,0
17.6615,0.9872106869686658,0.6331876081395866,0.759011772490806,1.9848947338199456,6.029299553247634,3.706126055279508,1.1325599297880076,1.0601713157644213,-2.645840266119915,-2.3565917870791093,-1.9748972426309237,-2.638773250392368,-2.004321133427185,-2.147087979173682,-1.8351315203893805,-2.1309533674067866,0,0.0,0
17.761499999999998,0.7095519316573886,0.9595572657562726,0.6479119929376345,1.4447981625628448,3.9676277801513713,2.880782434136959,0.8420106429021138,0.7673655326164689,-2.742452074887644,-2.222705688165812,-2.014852531084381,-2.823637422588985,-2.5000258064729657,-2.2624530334065827,-1.86489927029114,-2.1870862295819573,0,0.0,0
17.8615,0.4893327105337741,0.8816133373018953,0.42499546576139346,0.9354874185257761,2.4169615929740758,2.097750650160997,0.8270818399455642,0.7156627164594752,-2.8226395222041516,-2.2704517386641605,-2.0940812228811594,-2.9580776578018715,-2.821262401215011,-2.36879547056589,-1.8657400836192732,-2.202672963234392,0,0.0,0
17.9615,0.47467766760959823,0.5176300675971829,0.28114410739605467,0.7202873818535172,2.7790989284712557,1.8856470633333877,0.8532890415160683,0.46225715254585853,-2.828865629804217,-2.4006902320794286,-2.126967536947012,-3.03624682430282,-2.7544200579137885,-2.394550877296259,-1.862914773210603,-2.267348778045257,0,0.0,0
18.061500000000002,0.707520587525223,0.7572731685892068,0.3439227968062075,0.5307692467270037,2.802510752004066,1.9601174678358952,1.1616363044540101,0.41644505777121543,-2.7453927698708727,-2.2938339466592175,-2.105833311452362,-3.0879298295603435,-2.7563192615438616,-2.3835234076842204,-1.828557862622717,-2.275516686932812,0,0.0,0
18.1615,0.8962110110555215,0.8861036622380689,0.5111875440583948,0.9311421943411918,2.2695132107585207,2.108914870455149,1.2737787724458451,0.5389890443771657,-2.6720636010574115,-2.2282232357545273,-2.0591638944577584,-2.975189785257029,-2.8592658621434026,-2.364365454609475,-1.8128152673157154,-2.242147377770394,0,0.0,0
18.261499999999998,0.905413338755432,0.8155822899986984,0.5421708238865416,0.9307003387227006,2.09343212185367,1.9026531792250776,1.1832253301131597,0.5693996207756691,-2.668813164490422,-2.2639194913027745,-2.0482852531933236,-2.9733604241117213,-2.9028612182993134,-2.407669651179047,-1.8230067852938694,-2.2338696997904974,0,0.0,0
18.3615,0.8199833305440667,0.7768789962334138,0.4978281970972172,0.5969342305763461,1.79874008157664,1.1561177035489554,0.9789999799754895,0.5361401514607177,-2.7004633300442578,-2.28172458110449,-2.0598497460688523,-3.059975195177807,-2.9681087506990615,-2.505027517033537,-1.8530573556528143,-2.2422206658007653,0,0.0,0
18.4615,0.8070148549235415,0.6703163513396473,0.5766107472257369,0.8151901653142535,2.7681246192872506,1.0388198352293554,0.6570911340878817,0.5893899549585665,-2.708183206828324,-2.3356800240539237,-2.0322426030597227,-3.004427248472761,-2.7519242084499917,-2.5131548719813743,-1.889106975969753,-2.232366723196337,0,0.0,0
18.561500000000002,0.7396236886895943,0.7158775089014096,0.5761206628308672,1.4556102938612139,4.300141512723025,1.697928120234036,0.8291962264803587,0.9682582339892067,-2.7337414334767804,-2.315593519307903,-2.032976957715894,-2.821334247632292,-2.4056878052859707,-2.434653563678802,-1.869119018664513,-2.1488247964409526,0,0.0,0
18.6615,0.7504930269389655,0.8202581815338138,0.9692692317982229,1.8448026500152035,5.582487678249021,2.260794635112085,0.920840093742164,0.9558759246763461,-2.7269692142543427,-2.2583789539829753,-1.9319272303588741,-2.6813122314853293,-2.112004053353223,-2.347018263270566,-1.854990624070885,-2.152897084176704,0,0.0,0
18.761499999999998,0.8747015097553578,1.0201772752644547,1.447194979383853,1.3941261043753652,4.3684993955406215,1.7878222134920616,0.9917092328575964,0.6874161645095521,-2.6794997786564063,-2.189368728705647,-1.76478564618875,-2.879527947490473,-2.5750126664523805,-2.4389634152546806,-1.8493622818682431,-2.208382824023998,0,0.0,0
