t_center,rms_emg1,rms_emg2,rms_emg3,rms_emg4,rms_emg5,rms_emg6,rms_emg7,rms_emg8,mean_z_emg1,mean_z_emg2,mean_z_emg3,mean_z_emg4,mean_z_emg5,mean_z_emg6,mean_z_emg7,mean_z_emg8,channel_count,frac_active,global_active
0.1625,0.7988604828970683,3.0654194764729596,2.630362839650305,2.978786197879974,0.778035116038748,0.9861253795899527,0.6582919774632879,0.7930264764327362,-0.5949459658770813,-0.29801543153697474,-0.31572108934260185,0.6959123224956187,-0.8442997572507684,-0.8059614288025954,-0.7012494088991287,-0.31233126941970724,0,0.0,0
0.2625,0.9011804493597243,2.7152856436963946,2.6261487651642037,2.4261327005807023,0.5492209129095768,1.3765007848056476,0.6408572156368542,0.830299346931428,-0.42405374662005924,-0.47216283423066285,-0.3254724961048322,0.1751580691498612,-1.0176537720613537,-0.5037357748424726,-0.7365110709256867,-0.35289498787946405,0,0.0,0
0.36250000000000004,0.7770675863991655,3.0327285003212143,2.638721268382778,1.611389649948529,0.49715706264270915,1.1982845415043972,0.6098138802837122,0.6082982029920507,-0.6479544611236201,-0.3889192894697719,-0.3199449944913059,-0.5341792931817443,-1.0505300569368408,-0.6310224428498968,-0.7262923983039792,-0.8196611887860641,0,0.0,0
0.4625,0.9636678206114677,2.9878074296481385,2.3829342539332603,1.0644815542453518,1.1875795696142275,0.7523504850301097,0.7420397888804928,0.44978646362241653,-0.567059033504324,-0.4351152668260352,-0.5133727292496804,-0.8722073858401511,-0.5620460656617067,-0.8822178357740491,-0.6030421213057329,-1.0085053163023805,0,0.0,0
0.5625,1.635947759336449,3.9758763726604975,2.4052254544196474,1.3330782598678983,1.6184769189181403,1.1975294907749419,0.822300317544796,0.7955066573429065,0.0035744763959937244,-0.2358269803544964,-0.5265071980990303,-0.6159129191074423,-0.1646178606441361,-0.6015591276428027,-0.6096615590470096,-0.3986501108501438,0,0.0,0
0.6625,1.6148473084911674,4.311268538654286,3.3194388081675146,1.6241932783547006,1.8448401045336418,1.5921829640675316,0.9686136719482276,0.8258359407073614,-0.04739103912258029,-0.06404560810395091,-0.07909134337532378,-0.3907316781454205,0.012568750723858612,-0.288301444755974,-0.3546041334701494,-0.34706037034169346,0,0.0,0
0.7625,0.8086394207779015,3.5163397827039358,3.1791013022227363,2.0611743077404427,2.0447020853628537,1.7446902575259298,0.8707249287072222,0.71957270217504,-0.6861721659490311,-0.14598624588695194,-0.1859738519876878,-0.038286721094344035,0.2038388642871379,-0.14945593150258693,-0.3730308897413548,-0.5281578291531756,0,0.0,0
0.8625,0.4369254808167579,3.075005309444704,3.1878654088350573,2.3251051958369704,1.601166891669548,1.7585280917193336,1.0308557241630867,0.8432299952909617,-0.8914521813694057,-0.3152386322905679,-0.18847973912433474,0.11061700907632693,-0.30159186262913446,-0.2539475972537525,-0.41799319114068384,-0.22250563275264473,0,0.0,0
0.9625,0.5982766542675719,1.9255722952761962,2.953030955624638,1.8973123134381156,1.0324019753687326,1.7999965601420431,2.0080212223776224,0.8255044129772866,-0.7732173778496372,-0.7488054369388588,-0.16811356424443377,-0.27855480615892597,-0.6723804492998893,-0.2806363851276867,0.47531850514786667,-0.19620155079717164,0,0.0,0
1.0625,1.327375026487554,2.9074262789828933,4.4511989951433675,1.4147012164126755,1.9022318434406926,4.524163222368843,2.8011326632800375,1.4000197730517219,-0.3682657252830161,-0.4836229270206324,0.3652487197839884,-0.5761950836204166,-0.10671778015827497,1.1869062337225014,1.5322988603993764,0.6065419208016338,0,0.0,0
1.1625,5.232521433523857,5.0522654160923235,5.103243672480285,2.470528731499458,2.717693133506663,7.666360784893055,2.7896227039987025,1.5247220766990601,2.3554413119506834,0.34727243076980663,0.6836426523855685,0.2182219444554777,0.5649754356390907,3.876674398218101,1.5162581183099553,0.9096899788546307,2,0.25,0
1.2625000000000002,7.537662097515578,6.705864226761588,10.658473770075627,5.08508228132069,6.000309661339455,18.31567774012747,10.657362382938555,3.5314455327035046,4.821798427817034,1.1380843427570977,2.3612385026445843,1.7925982649542695,2.755151868795352,10.960202874449221,8.166807148490989,3.502320028203166,7,0.875,1
1.3624999999999998,16.589313243533535,7.876626611781362,17.61811374251745,8.089258521094878,6.488666486694516,18.51202476143994,14.42881294874471,4.8230308787994725,10.037279753641842,1.711940433108087,5.550385391153569,4.243436577611071,3.0470276349299414,10.929984787225765,14.9621485107448,6.5253611453574765,7,0.875,1
1.4625,18.990886868147403,9.197852369834564,15.405226346592736,7.8329349583133325,7.085611582881261,8.15695068841105,11.202400564103101,3.887815261742083,12.329588525842741,2.196478602143844,4.221592227454251,4.314744391110034,3.3847220105050315,3.8005390397517016,10.714127473276285,4.550956087016336,8,1.0,1
1.5625,11.123533416659495,7.898922473488041,8.042273910075942,5.571672480440211,8.910964582283889,5.833725614682278,6.595775776249207,2.2645142406501577,5.543461660423917,1.412041667973871,1.8141431579821825,2.559266227712229,4.904953215309041,2.1554050600951014,5.765883409371209,1.9795707465210786,7,0.875,1
1.6625,3.5758983685639163,8.503836887786981,10.572837034852768,4.901065824763866,9.438708407123652,5.431354974283847,4.396653583471707,1.3295986770644497,1.424408985062397,1.7072412538441473,2.834470665823549,2.0279413802726682,5.337932188978673,2.1864543876136397,3.193114980633618,0.4405057138938689,6,0.75,1
1.7625000000000002,3.215846224284769,9.717704554727769,10.6180178114566,3.2955232503439778,7.8864799421348835,4.000590833153138,2.9017420265750316,0.8993793692238623,1.2792940956109888,2.5761911979572556,2.8308161971068806,0.5124552580211605,4.414592728935691,1.0706941913115424,1.5731745921831157,-0.20252434051335566,3,0.375,0
1.8624999999999998,3.4965995130954077,8.398503456724713,8.267221951318819,2.4859230507857526,6.672775337771432,3.6757553482440195,2.3535205205910747,1.6156175732313351,1.4457704130097742,2.0397499605797837,1.8773700033614205,-0.04704365725651191,3.3020053446212527,0.908501387812871,0.7957759278501553,0.8570181255052931,2,0.25,0
1.9625,4.742564980980803,6.858636366833772,8.599290552054287,3.0415940033512765,6.468084170658552,4.857822425999368,3.3961823607613306,1.6539396697076634,2.271984858103266,1.1584664565973595,1.750267936726023,0.524567721752105,2.9069451313517924,2.019818891576943,2.0326849488412737,1.0194922418469747,3,0.375,0
2.0625,7.769379505753432,7.08748544631649,8.92868746069251,2.7498341178307704,4.33956163676026,6.237755489854072,3.6277220231092957,1.8165606422754252,4.4759400906651035,1.129050633096239,1.9629126496468126,0.42615896996491043,1.66413321636675,2.8320089629464134,2.5808045085501488,0.9074486808596229,4,0.5,1
2.1625,9.130000715930233,8.290527277065046,7.934728475809626,2.792460727553577,3.507720460608198,7.339109525653904,2.324757666178323,2.101717546180709,5.9619842918328745,1.5741279429637407,1.8995804985205718,0.42434017931300566,0.9381742411774262,3.5155431999352875,1.1313475664272838,1.6660486989250844,4,0.5,1
2.2625,6.394021700055673,6.132849138230319,6.083667096813775,2.640091157922518,2.508529043857929,6.39582335446,2.1274272234685028,1.5634876744292285,3.1298635188623427,0.7013588704440419,1.2030693107846164,0.3933880894798916,0.2798852969878688,2.605635462502996,0.874359225997628,1.0648632759107115,2,0.25,0
2.3625,2.214456429800477,5.4560826638802356,4.188264304324031,2.06564601153931,2.0751092870080536,4.0604292191788,1.469101223196462,0.9848659750311913,0.2898207135974604,0.4353461255717119,0.2825709620522292,0.03259351824962888,0.06543941793571866,0.9137457080599246,0.2099683677385472,-0.07737033718681516,0,0.0,0
2.4625,5.324869909595706,9.85945586580102,3.0781182902601554,4.228916780938023,2.2515226185935555,1.7225292024825472,0.8758773957567313,0.7606252910755532,2.2394832638891886,2.163130050089113,-0.29528198811437306,1.010733162326504,0.21179283177767474,-0.28896539198993404,-0.5915363837296191,-0.5018112148129623,3,0.375,0
2.5625,5.2904125582738715,9.053887997248967,4.500256542760109,9.454580469594513,3.5972192812784334,1.765294618874751,1.0579923231845174,1.1469144444203956,2.1560557085347667,1.7659939189930534,0.34836120443440327,4.693399262478381,0.971318093531579,-0.18260408950295795,-0.3857168895085071,0.011495106905611426,3,0.375,0
2.6625,1.3787061732541663,3.4139238061416752,3.985078754796339,8.792540568379207,3.5135045058858863,2.075347276433303,1.6360571628563767,1.4218258527846077,-0.38999813781306614,-0.23925469787326953,0.08689114383869652,3.8497801769799658,0.9376630612258474,0.09008578128508819,0.43557959278824643,0.5536051465610875,1,0.125,0
2.7625,1.7236268182881618,3.9205281863462647,4.081124484424762,2.628164635179306,2.0801467751666975,1.6207064676194738,1.6081568740860672,1.1707474763075394,-0.10812594501263538,-0.04231323623834616,-0.018677857305535457,0.2204010002449867,0.12075483268776999,-0.35893922725974675,0.25031003334975166,0.22974153240638442,0,0.0,0
2.8625,1.8205250071015195,3.82795257366173,3.9068330354295977,1.8744262739732487,1.372696593408707,0.7128590573365011,1.01960236057425,0.6590978656618073,0.06073785562713886,-0.11560942273673648,-0.17535922481282712,-0.38045960501150766,-0.4299791685535644,-0.9638335140851262,-0.5174758796357419,-0.577862274287734,0,0.0,0
2.9625,0.8797534994596823,4.429038295950509,0.9599648207470918,1.2627444237359238,0.9954895668135332,0.5461048652968429,0.8273721494854885,0.47922011998545233,-0.6426147221079128,0.07827261189767196,-0.9878258849913663,-0.5941676165816312,-0.6035865306514195,-1.018786745523381,-0.5569213921755896,-0.8760295463192876,0,0.0,0
3.0625,0.8265478957477478,6.312119319429298,2.320114379218746,0.9291360069313758,1.175888536863854,0.8747373278425532,0.846349032637192,0.8244897056345062,-0.6923579369862202,1.0341331078141145,-0.5965804843546403,-0.9878237428845928,-0.500240118894382,-0.8138845307089432,-0.5048675744047996,-0.3111862964783811,0,0.0,0
3.1625,0.8502106783075476,5.074935705810072,2.643431314763648,0.6472909132591471,1.0602391972415555,1.133639204812897,0.6939134588209902,0.8486837426898202,-0.5677914665626203,0.22462942960507026,-0.3851051700606699,-1.219068556570558,-0.643181077317879,-0.6275473344910169,-0.6459495821075714,-0.2997130177438018,0,0.0,0
3.2625,0.7386919385755044,1.735682707208646,1.6707841027455765,0.7938387617815309,1.04339488613974,1.1241803025655113,0.7753045812453331,0.48521880765255954,-0.6333096286584017,-0.9999395232599204,-0.7259074375039977,-1.073716320804087,-0.6479651563795383,-0.5797129970236172,-0.5474126249287633,-0.9007635149572819,0,0.0,0
3.3625,1.3395880342392446,3.5082406802720376,2.474507180663801,1.4954348434963614,1.2455237161575006,1.3283343504122438,0.9714893056579292,0.5401014825338298,-0.31086524148135364,-0.40717426010337426,-0.4634902279577347,-0.5710262475927916,-0.52443109039069,-0.3976024542096166,-0.27484745159277457,-0.7204510481410142,0,0.0,0
3.4625,1.435101633040066,3.9428580804051214,2.736071819947148,1.8191103096735233,1.4868984849039921,1.4775967338930358,0.8817466509475871,0.6032906605736351,-0.23367451035636755,0.0032772611310938424,-0.25072133812136865,-0.2189827349658032,-0.3739201406433957,-0.2997184641664682,-0.44978914499052053,-0.6363351771566741,0,0.0,0
3.5625,0.7364500732932843,2.1497409103498355,1.9764475104465655,1.2870301659985677,2.431000183501007,2.0668911127866756,1.2090753832922518,0.9440465683989719,-0.7488289713130176,-0.7264496358122507,-0.6040561997366904,-0.7525390546967665,0.36804218060127036,-0.05624030006457625,-0.3742005334917786,-0.22908414361123364,0,0.0,0
3.6625,0.7206656232975167,2.386778175307833,1.5037026858378875,0.9225376568695312,2.165428989714356,4.141386548649207,1.9667156968676975,1.054658801317376,-0.6711470805775235,-0.8141774064955146,-0.89059585904044,-0.9821959603536843,-0.030255312464647702,1.4117430888886033,0.709466474986895,0.030828790824582696,0,0.0,0
3.7625,1.7159868193060923,4.202984928101213,0.7561470632720858,1.0858779993949792,1.3714100024082339,4.1283241684019,2.1421773985636543,0.9440440261721287,0.005482686737217395,0.022418283646206634,-1.0999483907651573,-0.8681908443291563,-0.6337387439937212,1.3413598391989683,1.0219864244889485,-0.14817901572500738,0,0.0,0
3.8625,1.999723931171938,4.998742911843211,1.9558112517433501,2.3703515647944013,4.31923900593842,2.098797129625874,1.8785554745938926,1.3427134999630335,0.22867044267051362,0.43239730402383714,-0.835663442232743,-0.09046070983256532,1.0721523477070334,-0.11181664241727,0.44622465539768763,0.45785993112307116,0,0.0,0
3.9625000000000004,2.168760196407547,5.188741859856391,6.283015756314182,4.343618495128589,5.014233023965731,4.998099432498313,2.863301957355005,2.427306095095293,0.27584641712320906,0.49838860578177724,0.7818943773522635,1.4520066584331688,1.948638489064105,0.9832285947056016,0.9483994373870724,2.010224858398893,3,0.375,0
4.0625,7.0210469961154685,7.230851441813334,10.542677252201628,5.711177345424588,6.860550737201725,10.443409584563163,5.449404155104425,3.783174940630317,3.5234751580161485,1.4264874272144579,2.8946219815330925,2.098269401824497,3.1994939305636927,4.923707051398721,3.7989254197251956,3.9947869469196378,7,0.875,1
4.1625,7.339083337840141,6.666112211831458,10.79332488699597,6.444468427395154,9.590140477369,13.206953643447266,6.936503642625606,4.178912324589642,3.9403161930304935,0.8795078628778894,3.119215238600179,2.7866496065466198,5.464902069165487,7.632427469878497,5.838751329463028,4.651063558085247,7,0.875,1
4.2625,4.973275401232909,8.058460447292871,13.428390003028507,6.538045649187924,10.173413322837613,13.585817343012769,6.667959818410221,3.1108756610074537,1.9784604587375216,1.2864623837504232,4.011687492727407,3.805064598492251,6.550313080024323,6.983112835673162,5.184968655055017,2.931485471279779,6,0.75,1
4.3625,6.258151817391075,9.215751343603522,13.578885009052662,4.961822144724385,8.033690630081646,9.867024239684254,4.557441620017811,1.5711408835524439,3.334356602827378,2.1878384938086923,4.0409594308810055,2.3973767349306687,4.44368719209615,3.0725648425270173,2.508520666139969,0.6815187232155906,7,0.875,1
4.4625,5.433644745750374,6.098908398455005,9.216758370514878,4.290435981619329,4.836088206366029,2.2062566668640007,1.8589608191855473,1.2331865064058507,2.867362114264155,0.8855278530661029,2.2984881029413273,1.412396951757612,1.8354513995369617,0.08851744308774262,0.8044298800531432,0.31756273408264934,4,0.5,1
4.5625,3.789386879279977,5.7887645905367355,8.165311676124848,5.520981912262705,6.244321649383951,9.393604837899755,4.052141534147868,2.3635289456321784,1.5584666110066596,0.7990625984239219,1.851789723640582,2.772110018587304,3.1192878640707162,4.118143789679764,2.9861231593744857,2.172513678026403,6,0.75,1
4.6625,3.1545455194848575,7.552700580024659,6.33035714798163,4.453940213777981,5.575398305814265,9.536624989180542,4.344440491866588,2.8770859066815104,1.0120172680388029,1.4057635618708455,1.1444926503637565,1.8523893353030507,2.161880550449431,4.369850541903951,3.5285457130734823,3.068788679383118,5,0.625,1
4.7625,2.372191407427066,8.015997474194455,5.529994196279554,2.443079983436569,1.6343649401445555,4.848526221564586,2.9556285185569333,2.0878052859399894,0.48183332534365175,1.3073162307315118,0.5062706000909221,0.1959588568172822,-0.13054644512030553,1.7314013086404345,1.9052134714564553,1.3722456129103446,1,0.125,0
4.8625,2.2622565217054857,7.706186139727911,4.545020554440377,3.9076372908575787,4.454389295155968,6.421126586448261,2.820799785571219,1.3619703869026807,0.4334124558322275,1.4414944651026307,0.011238262982526054,1.2609620832781503,1.3700210494986427,2.8911809803498216,1.5372941726370852,0.6916714528229845,1,0.125,0
4.9625,2.265890532475507,7.733111175375149,5.78984933065133,3.997372476965041,4.874074754924932,6.385586226525549,2.835032182144146,1.1735654837491383,0.5242582564882295,1.81881550458307,0.6361749688518165,1.3151859458743604,1.9177391620368518,2.949464859140079,1.5782259727085373,0.2986587938166682,2,0.25,0
5.0625,2.170548087694042,5.643813334878776,5.926713549773273,4.676173620106092,3.9574117248347465,5.852102440800221,2.6314537665480318,0.561731339659757,0.3764130639477479,0.3842880471899707,0.7150583948700663,1.4849643516972828,1.3279437170407855,2.8145847254903615,1.4649247643586796,-0.7362924874647686,2,0.25,0
5.1625,6.625418720326051,2.245542401680794,3.521213681532709,6.4548130014544265,4.470232274180428,4.419002225692684,1.7773527577822092,1.0722283928437888,3.1518391955655094,-0.7620813372524541,-0.12374883001802071,3.0315827705511085,1.5075853868101263,1.5013615053981217,0.4943122579803132,-0.24767734003743744,2,0.25,0
5.2625,7.33625624681893,3.1058345204455127,3.504397669504049,6.755817369423763,4.541444383315997,2.1570143485124658,1.2404143936784382,1.412809563262169,4.074348868543541,-0.35349895621141963,-0.0670688718047062,3.5914093187078286,1.686946515711492,0.09463186956271225,-0.09560694137950039,0.4663838038530407,2,0.25,0
5.3625,3.823493258086654,3.302293345910625,2.3917625026379405,5.047784787698645,4.001183266072854,1.5034665005602852,1.1909835885731783,1.2438071669142003,1.3247170213341988,-0.3082568866726025,-0.4677232747279061,1.9790545914177065,1.5237305672205517,-0.44160956903789866,-0.25970228790549116,0.20068306982813344,1,0.125,0
5.4625,2.1363040023306525,6.3887128052691455,3.2770305029278357,2.877837729460774,2.990305606734767,1.1208627010919907,1.2113906044154985,1.1752868772838605,0.49315767067408933,0.9596497374833836,-0.16838950136163,0.48390645587279735,0.850863899968672,-0.6111818989410274,-0.223400515686976,0.10274804990768793,0,0.0,0
5.5625,2.2775126421769456,6.3640854572334185,3.318807953069893,3.548162060926035,2.6574546559486927,2.8022116260683334,1.420655770633532,1.292436465086292,0.5419364193971963,0.987112115482401,-0.18851498895253863,1.2305605414806253,0.609327442281075,0.3490321688431683,0.11284916844135731,0.4223662827307315,0,0.0,0
5.6625,2.055015681775248,3.209240768379634,2.690483247024425,3.6069986408900205,1.9650828513101388,3.458043061453241,1.3767572097869027,1.1080391959312554,0.27420322061822905,-0.2819679273984771,-0.41555746651807324,1.1296065494480587,-0.03309988124212895,0.9803576241082058,0.07666731729289258,0.13007576908159596,0,0.0,0
5.7625,1.5975653993375862,3.6552725021801455,4.459301616634063,3.6141930856630666,1.6269249500191725,2.9427973257944213,1.335530858815226,1.052224236215032,-0.1306070431339549,-0.042141075588022554,0.24321125431002624,1.1630045643983755,-0.3052920168475945,0.6724564172634744,0.0707908975759763,0.11075033971022315,0,0.0,0
5.8625,1.551514536212083,4.215560938343508,3.9673607971328653,2.950129492416232,2.132825659886339,1.9898425585762476,1.1755635975176983,1.0239467970022913,-0.16628264658157807,0.2854568986917066,-0.05263263773877802,0.5489266808626486,0.12367785827722103,-0.1625273525262987,-0.12358434494011403,0.02403977002300205,0,0.0,0
5.9625,0.908308846740764,3.745295900598776,1.72075247346602,1.3376695123015896,1.6900995476195941,1.1114340527226518,0.8629915762193653,0.5965064025718709,-0.6079360320959847,0.00962448884599022,-0.6837308675642119,-0.667506208443156,-0.3077213736322452,-0.6528331170727912,-0.5433176869827148,-0.6940141788315762,0,0.0,0
6.0625,0.28766897688537924,2.537751601527143,1.4694510125589773,0.9638105684670528,0.8911454245966911,2.891662367080908,0.6500595700922853,0.4596556587555088,-1.0756737305703516,-0.5144365835418779,-0.7671910778198154,-0.9540842550109765,-0.793890297938681,0.23974677494140606,-0.8175668914126966,-0.8808410249873634,0,0.0,0
6.1625,0.32569136033609697,3.3775703197012645,1.2044395403950365,1.2577722327833125,1.0273880376045226,3.1487992711488015,0.5440761021709254,0.7179731500476116,-1.0435728208884785,-0.2596748020406869,-0.8735927068769833,-0.7514381427808638,-0.7058141667907638,0.6064297101760052,-0.8056789475549807,-0.507165116799183,0,0.0,0
6.2625,0.5057308974404403,3.1310165987756435,0.9927386022040257,1.5982757832082635,0.9642088838607114,1.9801788696010285,0.8616011235650297,0.6793271911891561,-0.8699659509195627,-0.5542396686160667,-0.9574273198224483,-0.36471680985710103,-0.7539369962538234,0.011733429924024057,-0.40434650699956665,-0.6239365375289201,0,0.0,0
6.3625,0.549435091502493,2.316595942492422,1.1850838013982556,1.291116873794633,1.5600157196803985,3.920687964544434,0.8083295855139552,0.5298064444000021,-0.8328120725114888,-0.8333192640633547,-0.8659382098218742,-0.7042293354481173,-0.4058061295079838,1.1100992809990247,-0.5299215873310184,-0.7640056765948195,0,0.0,0
6.4625,1.024478790634804,2.375356877283037,1.4990896121816155,1.2039774155132348,1.7569932566464859,3.8125051189688692,0.830369869557921,0.5945103935147038,-0.5287930861923015,-0.7583351574223671,-0.7423096677626357,-0.7859598400907005,-0.16969318921565255,0.7938262554488397,-0.5501647193644821,-0.5791390237791524,0,0.0,0
6.5625,1.2330639150126685,2.5362948253651107,2.1255682593015246,1.6723753164648107,2.274886542217042,8.370184066197874,1.2901117759821301,1.0770156486268734,-0.37785545028913303,-0.6750062583145868,-0.588819145333812,-0.3753422869874856,0.17406235247304186,2.872445382670337,-0.027209582599292674,0.11891034903783386,1,0.125,0
6.6625,1.1788234101871993,3.215347913718169,2.035300102254906,1.7425311230970908,2.292301422641335,8.700074668017228,2.340485522603771,1.344914299110158,-0.4070037297766458,-0.3252368629555092,-0.6758062203735649,-0.2924719198661182,0.13752787778626974,3.819572134699103,1.0591546317415879,0.69599134944808,1,0.125,0
6.7625,1.1656432152219875,5.016905751892347,3.343817822790497,1.7942512232424828,3.0896061063720746,3.9540821043712655,3.080264369458405,1.3412001491636054,-0.41020400246599165,0.44001303612643694,-0.1405000562294535,-0.2479284396162612,0.6948173152318752,1.4038288526087082,2.1891266593144723,0.6638174385087803,0,0.0,0
6.8625,2.2098637761089566,6.648444177150459,4.674718721196125,2.998866088908065,4.721681635924046,5.022375275835858,3.231514440730721,1.5312461921263687,0.30433903656058553,1.3031533828440838,0.7189124010139539,0.6780197051352924,2.1216932089957834,2.030341440296043,2.4758853195783526,0.7764085278801729,0,0.0,0
6.9625,3.3162028752007573,5.129500797962339,3.775051070168961,5.262957613832193,7.898480240605495,5.591727757579244,3.9562654452995476,1.4659966949675545,1.4382325374082263,0.2463535722358655,0.11685694963907149,2.561330824150788,3.8746318737695358,2.3553039182725364,2.8454696496185132,0.5476899479926387,4,0.5,1
7.0625,3.422276700057359,5.620831915379321,4.701668514221205,5.234286743431962,8.492960939592198,7.180520046331053,3.759057013178629,1.1617817096159426,1.5062659021891234,0.26146066951011787,0.37122683177273125,2.4401987621403007,4.364808499690105,3.4072011656337042,2.2919292783155347,0.08504405953849968,4,0.5,1
7.1625,2.620726200216858,10.04976476454854,5.063020968894449,3.542161819872642,9.757397076701178,8.203423844905315,3.70986997814702,1.1248693414309097,0.7540750616181424,2.3695915792526607,0.726527027512926,1.148300303824191,5.548756270713836,4.255239498843888,2.6865621989435677,0.09254708324363,4,0.5,1
7.2625,1.8425456586737965,9.07826821662623,6.506698260827312,3.0716183245104185,8.83786227048554,8.24016192580755,3.8479067479511544,1.3110470164200447,0.12014918891431586,1.7687006097651152,0.840813368739489,0.7913930868457392,4.5257310478562855,4.187299407849771,3.05812194754234,0.5015462125136907,4,0.5,1
7.3625,3.535878404287719,4.2771092731993114,8.488594824807961,4.249434730395514,7.725418832575796,9.630972677123404,3.472494717619254,2.1512349944484055,1.1921010218434758,0.15123436251292272,1.8656225687036871,1.5598933802945079,3.840160156423794,5.274817795305238,2.6589033465697547,1.8501654774278788,6,0.75,1
7.4625,4.477410261884831,4.468578225877176,7.27889159739402,5.843408571527486,8.521920766079566,8.17022102049441,5.171061981580473,2.690877157253991,2.1837649652279962,0.3380891848279526,1.5749784071060222,2.9581125383773337,4.674613690288241,4.037704224041898,4.1840275574582675,3.127369811534015,5,0.625,1
7.5625,4.274133558619955,3.7124013582662623,4.616353573528752,5.1741629239473665,5.397519381144441,3.4129089436280653,4.8794672594272654,2.047456947264537,1.9185063095779742,-0.22475038961880223,0.43126334787841697,2.2955906458859974,2.5809295642097156,0.6744623467211348,3.5514020459929463,1.6392456962629565,4,0.5,1
7.6625,3.914078028382263,8.328627979874376,3.6483688372643686,3.715464469824695,6.26385517287543,3.6198495592576854,2.870493805283066,1.2766504970602301,1.660274058480268,0.9232611947771986,0.06769760781482753,1.276293228610204,3.007051241347514,0.798328537610182,1.9001946800122573,0.5026382022918687,1,0.125,0
7.7625,2.9285610023247344,8.976904236989409,3.550630795591016,3.9326829286401135,5.6656965459695385,3.6756159661529586,2.287419165904573,1.3534630693182974,0.9585805329661535,1.6517221023226,-0.04354421404216383,1.293486803830965,2.1084385239901713,0.8922868145518551,1.1129263212359313,0.6869297016018637,2,0.25,0
7.8625,2.259262004798902,5.517124214262192,3.5912166387301476,4.084549715715391,4.867173267766791,2.489841602657165,2.546258324597701,1.2559143812505,0.5004062998342338,0.7520958958898057,0.05816391330018746,1.255743675610512,2.0247262085267206,0.16720908817575583,1.4353017909844976,0.4529841535757888,1,0.125,0
7.9625,2.1348969542455074,7.330979894082918,5.017237335722116,3.5076289234299347,5.054235126245986,2.498074044671945,2.650732632137038,1.0769624181260748,0.2830265135625551,1.3807571072598872,0.4345919603631623,0.9266339846526961,2.126017486230754,0.19530966267733083,1.571264545727514,0.06328270794090768,1,0.125,0
8.0625,1.80605392307848,7.984091302680358,6.513790609338105,3.7248054419531393,3.54531524061513,4.4681046744929915,3.0239079292496895,0.816654520403877,-0.11502982846874767,1.3235540680345297,0.753670189455447,1.0483966145373314,1.0134615469895105,1.268531910818986,1.5935138015730783,-0.35530196634837535,0,0.0,0
8.162500000000001,1.6081000532235619,6.46340368788626,6.704140912776867,3.448700450202523,3.3056753106605363,5.301471702414702,3.296935946806766,0.9648768287473343,-0.1829509718403608,0.562770656229602,1.0148679133408631,0.7833346768730891,0.8191088832415183,2.164677375205082,1.8989210933082734,-0.1833382755182641,2,0.25,0
8.2625,1.576019264478816,8.262462740743144,6.992782998162235,2.679732045379099,2.4514509874484407,4.520006463977569,2.066942797740259,1.2122293742240704,-0.1425852759213129,1.530761672690536,1.452927735904473,0.3916721555173303,0.24348037217653026,1.7331671525832237,0.5520810194114127,0.19180049247138173,0,0.0,0
8.3625,1.3616635441694431,7.972487147012195,5.787950487527018,2.303736818361792,2.833004136373561,5.126304943816379,1.4640098243906767,1.0373455317922902,-0.26698498356675654,1.604909990736161,0.7947873550432777,-0.14280957677389128,0.4479878966545281,1.8648077470221895,0.02853693044068324,-0.07086119309160076,0,0.0,0
8.462499999999999,1.2413404730678335,4.008770819756078,2.2306416185573608,2.172630040199754,2.2793452460701085,4.000050802216075,1.2722610770385208,1.1147349178517678,-0.2977097642006647,0.20267984685391205,-0.47902527291961067,-0.21798006545759385,-0.17521580397891032,0.6587502853468246,-0.22269367525184194,0.21358698166997883,0,0.0,0
8.5625,1.2720180523740827,3.147430148255901,1.5723031940959449,3.401784831464261,3.147323685799152,2.088079391004423,2.7096398206945045,1.2957226457643745,-0.3451352224865928,-0.2967243433009783,-0.7768440469563886,1.038841444628658,0.5138221467241201,-0.07514898917826343,0.9973549272477038,0.6736065223668593,0,0.0,0
8.662500000000001,2.2272364403938743,3.453719525413189,2.6367769085046033,4.0217716636983605,3.658291353968449,2.182627288624821,2.907292167733302,1.1166649021681887,0.23841444832817113,-0.3434131192990692,-0.410267646940318,1.7075805628712997,1.338803856132092,0.0021778057316635636,1.5536314085005687,0.44074271897695394,0,0.0,0
8.7625,2.316482154750168,4.634575328349696,2.9709924458420365,3.461002915675665,2.1577544347517876,1.0984550352759936,1.1870419793336942,1.0085366065622978,0.3955329471187433,0.22460572808526663,-0.1795679922704159,1.1258783926747118,0.08566723243311249,-0.701318868315621,-0.1996167779100645,0.11018006170878532,0,0.0,0
8.8625,2.2951719240903055,4.1544309439511995,2.923437517834174,2.4238957867500637,1.3899047215226397,0.6083343689897557,0.7775438495847121,1.203610921318731,0.14737254563668464,0.07342691199488596,-0.27823273307282714,0.3426641094191498,-0.42158606121050596,-0.9696976696490913,-0.5698453908649339,0.22960971305704625,0,0.0,0
8.962499999999999,2.851701064984042,3.2207410849830387,2.7142904261136236,2.2418497959194847,1.4261188274224141,1.2350629870745027,0.8970177382713002,1.5723426351184242,0.6046473557357714,-0.3365023545183221,-0.3839880335578091,0.13722878381221906,-0.3810476623181866,-0.6412280155640478,-0.39491429791903415,0.8425506348253138,0,0.0,0
9.0625,2.3275067640964098,2.9641883238836635,4.0284983110842845,3.192146077451701,2.85746738908878,1.5350388768534817,0.801290653635937,1.8501972266775104,0.3156510512761574,-0.5352014243019991,0.14429832137428658,0.5292766377326926,0.2797616402478905,-0.4340318689639463,-0.505336195340412,1.271358750889176,0,0.0,0
9.162500000000001,2.1845603591138767,2.094270844020248,4.622838250355783,9.498609387421563,7.023623755937439,2.7699236711738604,0.96626907449007,1.765403141382847,0.35644671118292254,-0.7882717419750948,0.4860077660191737,4.6634214851290405,3.0799804615524686,0.2628330872160336,-0.3774192059752685,1.2217118145127075,2,0.25,0
9.2625,3.4290436756936606,2.6371924084560154,2.699140909330352,9.437639731416681,6.7372222398643355,2.812684179772783,0.846627982585921,1.4659223115582005,1.4245148161506445,-0.5116996838862005,-0.4082925564644943,4.724846071161013,2.8385351063212467,0.36944788949260887,-0.5656018265464732,0.7590942876620737,2,0.25,0
9.3625,2.9577619765323147,2.504845050088378,1.915104488920878,3.4009202603531934,2.3306870788208323,1.516502273754952,0.6258746545156758,1.149467659154455,0.6876064207379327,-0.6366315646668147,-0.587953810530859,0.7641557692498631,0.3839560233944009,-0.3796245238568005,-0.6697859863617353,0.08151702051686772,0,0.0,0
9.462499999999999,0.9939779347033254,1.6370939544776302,2.460353305918662,3.774170971189079,1.6779701493237054,1.0568982216407588,0.7627460589204884,0.7546233008081374,-0.49495785232178574,-0.9318614054267941,-0.42251420501780423,0.8493085847682548,-0.17679022270165362,-0.7818366369910222,-0.4914671828461079,-0.5141244212970097,0,0.0,0
9.5625,1.3508006238050374,1.674682420754625,2.05108571345372,3.1360692988278966,1.3852519042392635,0.5365797443998471,0.8003915946809226,0.9630972023986342,-0.34967975985559574,-0.917690570411185,-0.6369540693045274,0.07903062921571481,-0.3347463118974897,-1.0752155789290858,-0.44555565099927874,-0.07301775854607839,0,0.0,0
