t_center,rms_emg1,rms_emg2,rms_emg3,rms_emg4,rms_emg5,rms_emg6,rms_emg7,rms_emg8,mean_z_emg1,mean_z_emg2,mean_z_emg3,mean_z_emg4,mean_z_emg5,mean_z_emg6,mean_z_emg7,mean_z_emg8,channel_count,frac_active,global_active
0.1615,0.49206764317237867,0.8847898440024774,1.514555658212542,4.530380571946469,12.086387420828368,8.415391308065052,1.927972074382598,0.8296989039261549,-1.8307060341421257,-1.5298107955482936,-2.134478462648581,-1.979503429710568,-0.45725654860315823,0.4087841442276584,-1.499514569765628,-1.657245526707672,0,0.0,0
0.2615,0.9409777982425248,1.24167220446063,2.7054739695309835,7.17859718367784,16.555510001877064,10.885385198146833,2.6254186713273127,1.2652060461893568,-1.3959986089529013,-1.2744378552002122,-1.0483497878013053,-0.5509647374662394,0.9492730338438937,1.7815047893431455,0.013433744711609175,-1.0613859242170605,1,0.125,0
0.36150000000000004,0.9856812891591709,1.2663994442611977,2.654687916740765,7.125581582475839,14.629545731449152,8.377175053315058,2.1347762345482506,1.2101482900436953,-1.3430587685935487,-1.282694853261827,-1.1611788915971095,-0.6170640940637225,0.4524208696331336,0.5715609385529462,-1.0350128378873376,-1.1912755448896413,0,0.0,0
0.4615,0.9888053212583278,1.0707605365421529,1.4570772164256645,4.638905422788525,11.807671620062282,5.2063929795840185,1.460008650063716,1.1298140770051557,-1.3770653000134854,-1.4141634393502072,-2.1282583483135844,-1.7861821069235158,-0.1400433218941976,-0.4953383713797338,-1.9908133005953175,-1.3038910457743629,0,0.0,0
0.5615,1.2619527134530248,0.9502789469887182,1.09084293810725,3.1515250938563666,9.319973647893578,4.498055522635068,1.3386449680174026,1.3144236520501233,-1.081896064550669,-1.4758296877215296,-2.3268075911687656,-2.331995644234811,-0.8464947657007234,-0.8185816575858351,-2.1933540056943914,-1.0272273196754584,0,0.0,0
0.6615,1.353797776581192,1.7242135245056007,4.4215335886312435,7.377085972453136,7.923543505475093,4.0531971973710474,1.1183863605620672,1.1704889454510914,-0.9807800497769233,-1.087883389331016,-0.3335845598721654,-0.8410915204258353,-1.1360433826471121,-0.9950251382483315,-2.5472908604701288,-1.19630387519184,0,0.0,0
0.7615000000000001,1.9392578509086702,3.172795274849891,5.614556400523348,9.784580224731135,10.00544319511417,5.557410587115059,1.920096511613603,1.8747049617112062,-0.4485656017612861,-0.00880423075883033,1.082258038891099,0.5910123983985272,-0.5806453586240462,-0.3715841752500403,-1.3759514895444398,-0.5231579805721579,0,0.0,0
0.8614999999999999,3.094350136765675,3.8653926466627193,4.670223304520169,8.591011810138088,10.468544820432355,6.349296253201985,2.6393002973261077,2.6694496922487367,0.7147358899267228,0.609607962726542,0.3670415077845173,0.08305898200631978,-0.4386896662213959,0.014545455825061742,0.02212033412311744,0.6305142386003051,0,0.0,0
0.9615,4.190971109612477,4.552018006348326,5.778893563814216,8.65737931571556,13.112691336611979,6.357918891094971,3.4860235818255516,3.1649182382182226,1.8411422806767463,1.047665803149563,1.2164838907841031,0.11219161345649165,0.10169904567666423,0.016764455964339016,1.2827910472317,1.2444991351458603,1,0.125,0
1.0615,3.869388434679137,4.3832661628958025,5.613846744357938,10.14490220742295,16.332363569715984,6.85325671553657,3.5447758691057594,3.3290433323573674,1.4705886117107019,0.9096010738046332,1.1062934692189417,0.8140290181931316,0.8780937521357142,0.20350637984871167,1.3896591510643677,1.4562441255530532,2,0.25,0
1.1615,2.718040134583981,4.14357794010524,4.847935569832618,9.96767924098991,15.541580221661293,7.289514476170592,2.7017144102987554,3.0421650202300574,0.3982739572492296,0.7666897153736398,0.6057109387534525,0.7227003685986917,0.654365068611249,0.3638621954071731,0.10812706451891291,1.1005904906164425,0,0.0,0
1.2614999999999998,3.0228387374196126,4.8034269825771885,5.3975203567684105,8.222423306857856,13.398560090165669,9.700720351570938,3.552963429919035,3.638828092679042,0.506537481541285,1.1885909082970307,1.0425997736973123,-0.10639414945505822,0.11379743100703232,1.1238457158270867,1.087292554803112,1.6266419036322697,2,0.25,0
1.3615,4.276739435545687,6.064534704786977,6.444420766431782,9.062418953679627,22.599824843918526,13.468349734638679,4.788800449104628,4.517657583523402,1.6768471309500648,1.952052758333033,1.7099779906155164,0.22509993590283098,1.9147777121143517,2.6554050821631527,3.0805221748113603,2.6310036930128557,7,0.875,1
1.4615,3.7312817822370428,5.223356885272495,6.0347302703690096,9.838011456010062,23.556160202193183,11.628141963646316,3.8655091539493696,3.5584809182556367,0.9863568764715024,1.0736656249612113,1.3403133651870365,0.6593703769313026,2.215414183697609,1.664987296118254,1.2193263100513105,1.1604523599715826,5,0.625,1
1.5615,1.549192480331361,1.912119022796869,3.574171226139917,9.165460867872865,12.915913752189002,5.290532897333682,1.7939006254056906,1.461067822161848,-0.7684354668071453,-0.7982639870814299,-0.3118813087530297,0.37497484070111314,-0.14530131743354271,-0.5579245486357017,-1.3160093189894608,-0.8540535674165562,0,0.0,0
1.6615,2.1040146742702293,1.9643788004971305,3.704303816243331,10.119629592211794,11.808783252804432,5.941928760411442,2.3166873598993787,2.3958716179414647,-0.31098757886616213,-0.7723930182325592,-0.21904965193279224,0.8023004940993731,-0.24646381768820508,-0.34360981807651536,-0.5753038809216084,0.03715442989839854,0,0.0,0
1.7614999999999998,2.596661425497192,2.5110167769294423,3.935185347167174,9.779401387507853,18.24579950341252,9.579182904755308,2.6826294665555666,2.8959708236664548,0.2871978357897848,-0.36880621183296924,-0.022208607658963094,0.6452399588839565,1.2494748786183008,1.1196327900389003,0.0911685041065536,0.8720906273358773,0,0.0,0
1.8615,2.3171427168852694,2.9187865709630847,5.49201490699615,10.744096476139868,21.686378101807566,10.082336422625191,2.6770400001783035,2.453765518724227,0.015328828541258588,-0.05863359347520885,1.030326139961159,1.0028397809393101,2.123212031259428,1.4320710295122314,0.08827898199222008,0.3669222376564018,3,0.375,0
1.9615,2.265202748044377,3.220091155637084,6.46732139318648,11.790601879502622,18.832798888688433,7.079686179367482,2.768929394326257,1.9377838642969152,-0.030311170984361455,0.14003996497534557,1.965203637014049,1.473789394569002,1.3012366044284804,0.14537203611388497,0.24077627145217392,-0.28676771312541727,3,0.375,0
2.0615,3.113880487026527,4.518433807100838,5.821399083479879,9.73093551530776,12.118156226325628,4.164636545803584,2.815150189669828,2.0188755918170047,0.761838861311139,0.9824755415499823,1.4545317274597378,0.46895504125556187,-0.29852640729879676,-0.9223335237601253,0.30640950052533716,-0.2139752917964071,0,0.0,0
2.1615,4.885976197242811,7.069876859204017,9.023968568870384,15.038107122184867,14.773904599599032,6.392192260679564,4.158657458169807,3.9978819005532444,2.4709377854076364,2.7944809092534615,3.5867289235903943,2.3879547860094994,0.25672796567320044,-0.2366229498048221,2.140661288566805,1.9434970346915168,6,0.75,1
2.2615,5.002843567446873,8.179699232995457,10.071060590931065,15.882945215467235,17.486250661791686,9.009900469316504,5.354653886488816,4.684978729438306,2.601958744519258,3.69081703908862,4.704917208277335,2.911622520110431,1.1195788244295133,0.9805723773125393,4.263618915850024,3.011336329331817,6,0.75,1
2.3615,3.7829835662778426,6.222906700860448,6.616338461416604,8.481433015840523,13.65711911626711,7.566704395829231,4.334800344861518,3.413569943771125,1.4777483754317062,1.9691756823704507,1.7926382242722314,-0.27440529864455443,0.21430748922646092,0.2911085486711969,2.2138770650148047,1.3572829617484137,3,0.375,0
2.4615,3.1492426967384604,2.909754300301087,4.075415250517269,5.63649238826467,9.237256286801138,3.6534526866617973,2.021562718109523,2.050359506584018,0.8294920754045818,-0.25335933080973627,0.08231313011088033,-1.1993357267675122,-0.8222960013435351,-1.180341895501076,-1.1936181074224272,-0.12738155826136197,0,0.0,0
2.5615,2.959736530769381,3.513253337900404,4.752939679616637,6.375748185794799,8.196870698886087,3.4610941614193496,1.7383081634830582,2.0754953360141264,0.6041382423234315,0.05468380111640807,0.4966162271812995,-0.8736458753492684,-1.015619952974694,-1.3004726889182259,-1.637772375764591,-0.15036483130988917,0,0.0,0
2.6615,3.7886682772249376,4.597476123742841,5.5009670212552075,8.832921369657333,15.741420037729966,7.691007052404215,3.260195437479027,3.4111422348362193,1.410916677933041,0.9697539578144988,1.0602970506216354,0.14156409491893526,0.5224524210789143,0.24730842263073868,0.6257867265764787,1.344141776484851,0,0.0,0
2.7615,3.316699749764897,3.360783592716992,4.455057651303697,8.79751588612549,18.32682958409314,8.443139832794781,3.3925020807504866,3.458068291767792,0.7730474481816626,-0.10283782827502605,0.15271297635659242,-0.020767089935536952,1.2502217574124679,0.7245775358265659,1.052649359481344,1.4331500901481444,1,0.125,0
2.8615,1.7189736760889789,2.631145779126223,2.801223280946911,4.901038349466559,12.542922287371931,5.269456607150828,2.706221034847421,2.209904611979061,-0.6271214949691284,-0.42039381354656685,-0.9071661646234921,-1.9914966623166879,-0.2635375566296189,-0.5633777123131982,0.09134245500081775,0.02538140174778675,0,0.0,0
2.9615,1.3528002421378889,3.798786328504444,3.814547258749461,2.6976773890981343,5.717850045344272,3.47749539123587,2.7273615699128246,1.8888151508057938,-0.9441337531511591,0.5505309035681869,-0.23869934836767498,-2.593094769405361,-1.5650678024930493,-1.1168430383492385,0.11310650550875768,-0.28134572721907625,0,0.0,0
3.0615,2.2641490434157046,5.323168512950883,6.8494719168880955,6.9555998043525795,7.663198164976102,4.025942559754867,2.566369817871145,2.451938112376629,-0.223105171048455,1.578456841689155,2.0225219062705624,-0.9977321134198798,-1.2415547767519015,-0.9155568752124746,-0.13085354967471674,0.3285438988658776,2,0.25,0
3.1615,3.2875867543724495,6.209487365509097,7.9456381365515,9.405376737783529,10.795346197955878,4.867357414510432,2.702069888121912,2.7720150372318235,0.9657065351234975,2.296024143233158,3.11685865396796,0.34286586579907935,-0.42169337594227213,-0.584673548531475,0.12005299489131159,0.7648995693792218,2,0.25,0
3.2615,3.1557187814416694,6.0323084902644055,6.334767240231852,7.38859394853887,9.097372351175844,4.498285881281588,2.632078349132532,2.32387484463071,0.8224657112915859,2.1443034533914993,1.6878267395808948,-0.7168124702610456,-0.9182275096218746,-0.7430270400664821,0.015770157780995574,0.20601710341555737,1,0.125,0
3.3615,2.3642440225634007,4.68185310346984,3.7758763932560973,3.406626458816318,5.291328534459653,3.9646529668755144,2.4641400658770456,1.7476576879198797,0.04332471364186472,0.9852289003016808,-0.6224920581135867,-2.2841818083174856,-1.6968848148127527,-0.9314947644150746,-0.2553172064450142,-0.4788839794877603,0,0.0,0
3.4615,1.868417147554317,2.5538983860352316,2.639342707736924,5.16529467667453,10.478240629811053,5.635465629818146,2.1203380073072124,1.3453399977785983,-0.4222594817613236,-0.3465966947549785,-1.2184599427893172,-1.7569238468496482,-0.7315849737836422,-0.32294512861553615,-0.8695907516411373,-0.9687993890241984,0,0.0,0
3.5615,1.868106395965363,2.1444337454665425,3.157054668598531,7.935864491378868,14.660763091252905,6.85615106918898,2.2420542962745347,1.3757679821380213,-0.4233783079666438,-0.6001778706750704,-0.6939375823498115,-0.37384406688148175,0.4819281209993309,0.2055931715415057,-0.7164341981214963,-0.9246023779228004,0,0.0,0
3.6615,1.684343023616684,1.818941161883434,2.5932016480558673,6.913630729611436,14.00300703441028,7.914645201675584,2.516819582179823,1.3193849142946648,-0.6629715724775863,-0.8856646915675672,-1.1229306854224759,-0.8860857342872124,0.3514712302199776,0.6091042185023845,-0.24392944073367961,-1.0192441060777444,0,0.0,0
3.7615,1.1845870496460498,1.4946744973493387,2.4351329461405893,7.890537760757289,12.448885796419273,7.417583133605498,2.094030714905194,1.4508318824279094,-1.120739172258697,-1.1148429231372183,-1.2114386523257392,-0.5155717476836168,0.008574513895522362,0.36209163197092054,-0.8985404650471293,-0.9090138731288472,0,0.0,0
3.8615,1.3196167944370805,2.085381865679365,2.3721291396107835,9.477989502554317,12.193107096786177,4.927289464855858,1.6116319698057233,1.565528911378251,-0.9819433744403878,-0.7079256812138539,-1.2675491771897978,0.46337627505700413,-0.046653980573367955,-0.6019562392730439,-1.6254101354908344,-0.7213002257879336,0,0.0,0
3.9615,1.8413044663398896,3.406979296700782,3.287226819149702,8.496689918203078,11.016640169200985,4.272647542900037,1.778218728131517,1.6255240101617199,-0.47286980619396796,0.22208045504174456,-0.657705335105833,0.08215624346569605,-0.32856948847179795,-0.8111643329158698,-1.4050333129185435,-0.6409171901130505,0,0.0,0
4.0615,1.9328010990112563,3.621946116866789,3.340566430378416,7.513538768692495,8.498659835666574,3.9851086426640627,1.7801452489570402,1.7384612320398116,-0.3614414717144726,0.41704724912937957,-0.6343543154751743,-0.41600051504134256,-0.9308897838256296,-0.9453384061933751,-1.3924565822208756,-0.4812634802644947,0,0.0,0
4.1615,1.5905898563229393,2.8381076148516846,2.524341597448722,5.246671547813037,6.995962145516007,2.696026863432265,1.4018210251994012,1.5508934679823945,-0.6961723126671211,-0.12702816206317416,-1.2360881855358463,-1.483155236753579,-1.2354897379392045,-1.4336794506659545,-1.9249195674431223,-0.7096229355655328,0,0.0,0
4.2615,1.4711268194463956,2.9404725528340205,3.1324007738505864,6.922376501450552,8.42065250847841,3.1666780684537557,1.7755566953767725,1.8429520324234816,-0.8116129306496517,-0.06760873083288875,-0.7510508516965853,-0.8976959554519586,-0.925553756351114,-1.2851247476823031,-1.3704202996886108,-0.3816978352407802,0,0.0,0
4.3614999999999995,1.4809342083558366,2.7751103946574247,2.706362343082672,8.2518360582432,11.35463764913659,5.676489275846225,2.5284997702176075,1.8615383400415295,-0.8003319508228235,-0.20372994736490693,-1.174851055973531,-0.0832247239826415,-0.28453955690500576,-0.38712795231600994,-0.2210327904077738,-0.34090258693871983,0,0.0,0
4.4615,1.9125633794147885,2.8440873255191432,2.3261726502828584,6.833610897084731,14.493486909780462,9.287043347443591,3.265332632939418,1.8976830960326616,-0.429464916999709,-0.14671893707331995,-1.3863271954715146,-0.6710269499451161,0.4464381393631959,1.0286814432910034,0.9556219413339673,-0.30871839924864497,0,0.0,0
4.5615,3.173585138045538,4.313113969839093,4.937302251774998,6.842389713508237,14.181003412025685,10.173905200707066,3.296588973230667,2.7603322917014164,0.7592615501905972,0.8435469111267083,0.48784201865635013,-0.6632827860494711,0.3828858532579048,1.4948372637459166,0.9211345326623095,0.6787733591300852,1,0.125,0
4.6615,3.6239584821122928,5.521661458094872,6.667706783693664,7.268739569239665,10.282692401451442,7.876019503227459,4.22424342512043,3.4902432590640653,1.317951928244371,1.7575215313719277,2.1129172760612094,-0.4862938566051726,-0.6083197551376738,0.5038036112715006,2.194638472300056,1.6225901492706654,3,0.375,0
4.7615,3.05198606198997,5.268365113223437,6.131436398649506,5.511668787162836,6.426229525778554,5.318737471374094,4.243977913060448,3.4626440086806265,0.7333128217414445,1.565730737447192,1.65586395258034,-1.4530177328355018,-1.5129419057926403,-0.5167317125388977,2.290413337862978,1.5915400439161653,2,0.25,0
4.8614999999999995,2.827352087239182,3.8026812921064845,4.398688643234028,3.758551019240092,6.73878696661746,5.331824508081364,3.012318767221255,3.1872363364842045,0.5293137461297581,0.47313566043527727,0.26653364273042324,-2.077679878342684,-1.3868871185322735,-0.45409245379746205,0.5454848238112977,1.2737624477209937,0,0.0,0
4.9615,3.4033356578614,4.331993189407094,4.070226127503159,5.310214668116642,9.114206159401684,7.228178412632145,3.215608930396042,3.1590838057496655,1.0814163566863075,0.8025588191554129,0.06292563555346073,-1.3977046281987102,-0.7587974867137836,0.339290320049866,0.9125609932486569,1.2344121304316211,0,0.0,0
5.0615,2.9036154161706937,4.2281733901789424,4.066364990037818,6.769473784694335,9.556525346182577,6.992056159919476,2.873038156456231,2.373584824535189,0.34662945760918623,0.6854165186285048,0.05936435379560137,-0.7040742190364081,-0.6438763467915715,0.2059411833445866,0.2631644953699877,0.02771655037817125,0,0.0,0
5.1615,2.067865264427529,3.891695561921371,5.512250515074522,9.157803114473479,9.568467135224102,6.189504149061656,1.797328616629305,1.4665243061823663,-0.3670681214759199,0.41354399407653225,0.8873266522000083,0.27241760125683534,-0.6504020636149588,-0.09078247262683227,-1.3890964066753924,-0.851918095977086,0,0.0,0
5.2615,3.2594234064600816,5.548045525870565,8.204692995989166,13.27487408080388,13.389562769843923,6.64702230401735,1.8170524968963604,2.3261325225503384,0.8369680876182518,1.671913227499528,3.151325178896437,2.0793068259952743,0.13151235313859255,0.12127819170407406,-1.3588076625507168,0.13329106666057838,3,0.375,0
5.3614999999999995,3.255836952397883,4.970637906327128,7.453502752809931,12.577580644530672,13.91470557234505,5.968457036840175,2.1637009379763223,2.6647379629954537,0.8896779219847412,1.2218540809419187,2.480460001380529,1.694313010889509,0.2759382194547735,-0.16303790319267564,-0.7333849866289579,0.6382883906630444,2,0.25,0
5.4615,2.8188321226855404,4.3833639818968555,5.503405995972589,7.036876566211469,9.534485611768073,4.447082949885026,2.293875744860498,2.6615164809756577,0.49601188424190107,0.9173204944430925,1.1873504963882617,-0.784621914390131,-0.7099325949757599,-0.7524406924368816,-0.511533402985312,0.6271972559557518,0,0.0,0
5.5615,2.745307855988883,5.9387309773874986,5.867453727936699,4.691643393062052,9.011221835413995,4.703396786503154,2.967886689568231,2.796913009005845,0.3813772677773752,2.0756889544770356,1.4803319726715325,-1.7590822063636882,-0.8102910657788557,-0.701350085837182,0.4237385205459534,0.770009648474199,1,0.125,0
5.6615,3.228330069375383,5.986037600072077,6.727207153668263,8.398954502209184,11.751375449420083,6.657222454156308,4.382829140336319,3.5777948862469096,0.8007097789398572,2.085556035848109,2.1381051404536944,-0.3020068731258004,-0.1904592350805184,0.03444883445544491,2.5671542491880905,1.6249273065281358,4,0.5,1
5.7615,2.9015738089588843,4.138467310261417,6.476108269140742,9.178687457206548,10.15300153359921,5.722005074314134,4.267197413018774,3.471673917548374,0.12784428632544054,0.6063646299364016,1.8759831910187543,0.2641715719934858,-0.672673461711322,-0.48966643712449953,2.373550896862019,1.476132116883633,2,0.25,0
5.8614999999999995,1.272813941667237,2.456387844638117,4.496856646697101,6.462354253276008,5.696243568080883,3.26786809757845,2.579265274236996,2.1284146353900844,-1.220065805655245,-0.4018907931013031,0.33442431247208093,-0.8749400298528439,-1.5369138496209451,-1.2227227714963704,-0.1910002526255938,-0.04778066121245267,0,0.0,0
5.9615,1.5294804989457969,2.7581361951895107,3.2103693968045968,7.08630304120151,7.466646620735772,3.557657001168554,1.7562412367362596,1.582422650376784,-0.8347852611502369,-0.1825308012975809,-0.6542526925835962,-0.6184470997621972,-1.2058803978980754,-1.0827493968245765,-1.3691982669363565,-0.6750895604655611,0,0.0,0
6.0615,2.6603526290138255,3.239013505958299,3.5400531821024273,10.489580802496318,11.373491902861163,4.777889384049859,2.6712320010977004,3.0746798700244584,0.2134218452282488,0.17370096840167684,-0.5443479617512545,0.8380641692843207,-0.31826905781008813,-0.6912217186820167,-0.21266771009977548,0.7262261540200998,1,0.125,0
6.1615,3.75093219097255,4.254238358965117,5.393811558971129,12.233828607851386,14.627947714668467,6.1295656743973295,3.2064024947472403,4.26239144631154,1.4273469102044616,0.8476288710118282,0.957949065764755,1.6949665179642057,0.4388317417750494,-0.10507563956259829,0.8684201378487589,2.5301037943514326,2,0.25,0
6.2615,3.1547680588681075,4.173787548861062,5.489590907197443,9.705400138097293,12.549905653050404,5.865185248050845,2.9434386420573873,3.6518221561007533,0.5429199739548741,0.7677509992599587,1.1353266495124097,0.39256223841384885,-0.177861078825513,-0.1954392227433217,0.5088563276380871,1.6846957564599134,1,0.125,0
6.3614999999999995,1.5641961785284664,2.7035063674326953,3.5558939220840204,7.135681870336085,10.693214298844095,5.358768589895045,3.052912218542224,2.2296402040596157,-0.8619439907073477,-0.25651168321992324,-0.4807448845309139,-0.5427817091904658,-0.48432255873069635,-0.3943717991890132,0.6708932279455166,0.01863646378803772,0,0.0,0
6.4615,1.9605595729812135,2.320439268996735,3.367519015789774,7.293621048470094,10.11623466901772,4.590867010028557,3.1564443616904723,1.8299341283049706,-0.4394234162485498,-0.49596108184343374,-0.6385683629990908,-0.45962809605381877,-0.669786786417966,-0.7285010841410395,0.827624660393692,-0.407283386959226,0,0.0,0
6.5615,2.7419972380493833,2.547341452238453,4.406811369812329,6.042471547896896,4.797107689378841,3.2893707544554966,2.823789183205061,2.3580386820569967,0.4167741835317393,-0.3316317571151334,0.2289124279127384,-1.0815884137121285,-1.828031222862365,-1.196982680068048,0.26362154551515277,0.2164327170681734,0,0.0,0
6.6615,2.386366308526173,2.269159637626689,4.070118089531074,4.372807087809218,2.9456073078432365,3.129042797221799,2.9486035933960886,2.5523085139183626,-0.044397130849244196,-0.5445583881373441,-0.024008185057372705,-1.8491263153715456,-2.1656926616216476,-1.260526247364862,0.41789246877111574,0.5141773318562387,0,0.0,0
6.7615,2.4748372769357863,3.64557049304501,5.178632150558347,3.5614219553432003,4.522895605852759,2.5289288163228356,2.757533871914908,2.3854394283479254,-0.008889794809689695,0.21838994918636115,0.7633571988119121,-2.1512075147762246,-1.8354631143200484,-1.574476203908295,-0.0848241079243778,0.31990254801925994,0,0.0,0
6.8614999999999995,2.9227380651940504,4.070608495861101,5.28164323378936,3.152686029528987,5.240005581761879,1.7387095020754186,1.5287930956611961,1.9569643424628356,0.5763324924751145,0.6439404387530563,0.8668944189330461,-2.377048274786112,-1.6368270625509422,-1.828797941816235,-2.0399796196520192,-0.3063574108186638,0,0.0,0
6.9615,2.5424011843167773,3.3052793652288166,3.7738362689506095,5.009354085713082,4.998177945245996,2.9858924607002857,1.2218282972868468,1.3610679979665843,0.2502591765728139,0.18425960435189068,-0.17672556105111703,-1.7155978203544717,-1.702968286445993,-1.3614108053447802,-2.3113871475548877,-0.9804201617063866,0,0.0,0
7.0615,2.4787932328507676,2.9424522123167347,3.3041115444532014,5.660123577229617,6.762793252843722,4.26575711556766,1.865519148152792,1.7135289763854364,0.19767498417197488,-0.08538398621838159,-0.5609027560698675,-1.2734337694607898,-1.3377868857273711,-0.8132710480819594,-1.2671630485080825,-0.5664546438395298,0,0.0,0
7.1615,2.522252941067564,2.4265770531407993,3.091755951792055,4.972365100335971,7.993949744957772,5.612524487365049,2.063738497837837,1.974071531319689,0.23950894548995852,-0.4360955060236952,-0.7304711081344974,-1.5360815755202883,-1.0056827205830645,-0.31120955826261,-0.8787361934536829,-0.18059754710752704,0,0.0,0
7.2615,2.232938177166811,2.45629830651657,2.986190172716389,4.406495927680328,8.507841357255884,7.383570630061756,2.110942154062439,1.8204198540338268,-0.07395185143191833,-0.4023812720118738,-0.8366707520567631,-1.8328767528015288,-0.8898232618762539,0.37594054316650066,-0.8013553049151827,-0.3714178021706847,0,0.0,0
7.3614999999999995,2.6568700191620067,3.53836100050245,4.4692398115783725,4.952633584219667,11.555458788692329,7.99222768350016,2.494396899419315,1.8221406537283418,0.2721187002177082,0.2871609167401658,0.07520644005116685,-1.6820765258797872,-0.27029846355865494,0.6546879037713729,-0.21367117353133824,-0.3966621116620302,0,0.0,0
7.4615,2.800361455645004,3.621816990042873,5.561754375319858,6.265835620083893,13.116782909713741,6.897383892210879,3.0799456597450976,2.2833337728353125,0.4384542730606362,0.3486094100816956,1.2050104450783956,-0.9843086429034957,0.06993149266108764,0.16893067021310698,0.6970496616566585,0.1343371299719192,0,0.0,0
7.5615,2.1499129073633765,2.326298409677654,4.17472297748324,5.087028701418425,10.136763950604369,5.337649454884717,3.2654513170813733,2.5828240346395814,-0.16409786854464478,-0.5241197946086963,-0.024707066779964877,-1.5428385541528216,-0.6872592176697239,-0.45720265976209906,1.0268620791177538,0.5568961052268109,0,0.0,0
7.6615,2.11470538909991,2.201039188797783,3.972888689554129,5.9533773557146175,11.371085683215627,5.629981079160616,2.7736246306605183,2.146107514694716,-0.17866802788465835,-0.5748337373251219,-0.1521434404060196,-1.2613800487269573,-0.4198978880333786,-0.32145525914998146,0.2083145593533066,-0.04121058718337541,0,0.0,0
7.7615,2.2915051444138794,2.2728010811574904,5.193801695531924,9.149833355476392,16.409011193299378,8.909107971701753,2.792291422763343,1.8215839446601823,0.0032630259111683644,-0.5208820060695816,0.971611576386223,0.2844771712272053,0.8815941712624951,0.8993721554137243,0.22217527022204997,-0.3998629320666375,0,0.0,0
7.8614999999999995,2.4196171237811375,2.063651462872304,4.321816975233754,8.712155613894769,14.518695354899556,9.138825616359645,3.1545106068554447,2.1411515578730542,0.13686261348594805,-0.6669832091567922,0.08228016541149906,-0.012591726640122392,0.27936326959504054,0.9739434871870495,0.8442568576225083,0.0008725462931371733,0,0.0,0
7.9615,2.589280960971951,2.1786045547681314,2.3255331475684273,5.229548782221242,8.360949248960068,6.575952073258961,3.375837130876511,2.561168529175235,0.3057369610324011,-0.5881842308305295,-1.4092557890944624,-1.575319603331168,-1.057233487200551,0.04181069053162776,1.1936362270088174,0.5069256265804686,0,0.0,0
8.061499999999999,2.9147790808407517,2.4188006354255456,2.09207981288916,3.472071333300552,10.01077736715443,6.023885039926761,3.6358158026597116,3.2827546783408725,0.6249097931012794,-0.433346027650902,-1.507413568733467,-2.165113177757355,-0.6734009446501079,-0.13660960097072902,1.557773477114979,1.3454757607540657,0,0.0,0
8.1615,2.508113176687252,2.090335436374823,2.167023006749999,3.5218318065735943,10.620096586972744,4.567063436377143,2.7605940862448506,2.8605047479520564,0.1006109822399543,-0.7436364485501709,-1.4380636233829214,-2.1416697698845657,-0.4675825987991123,-0.891732979246305,-0.2850833475749833,0.6022531323874276,0,0.0,0
8.261500000000002,1.852610268693727,2.8326345182503885,2.944904426329061,5.280312755954382,10.117663432583708,5.013424446525444,1.8859682356079446,1.9289627422137359,-0.4647617346711834,-0.3115374303736469,-0.9312126745824638,-1.4786705297269231,-0.5901949315548073,-0.7649597439682516,-1.3181784684082678,-0.31970643149087913,0,0.0,0
8.3615,2.15026536284289,3.084215401831385,3.3924252763402647,5.538207773044708,9.71649286195227,5.5011093000639795,2.2951878188795476,1.9932049125379314,-0.1461436286876771,-0.0015000941095149579,-0.461676497277236,-1.435532831854042,-0.7329600315033822,-0.5067300296972724,-0.5255771798883345,-0.18597466257787898,0,0.0,0
8.461500000000001,1.8668955625878383,1.78189932110369,2.465716598782844,3.1757476138753313,6.105152967077924,3.453908116948047,2.110024127426605,1.4840602911157408,-0.5421962792682428,-0.9641621771033594,-1.3135794985479194,-2.58558297082157,-1.5254757246675987,-1.3022051356847961,-0.8035141040814058,-0.8312076551687794,0,0.0,0
8.561499999999999,1.0513070853875508,1.3346633084702948,1.3143368801819877,1.6586985997844677,9.34674162465312,6.536017682128105,1.609951038037639,1.0239016407151658,-1.33953941644339,-1.2242714146972933,-2.2613728869554466,-2.997067717585693,-0.9154913175083135,-0.2702532851921402,-1.6788684753084353,-1.3428863437835732,0,0.0,0
8.6615,1.586843589458774,2.2650741244700616,2.144728462693162,3.19556843641056,11.645477536405288,7.582136840384344,1.493620309927672,1.2560995554532353,-0.9460190326645924,-0.6008628501852796,-1.8054798144547382,-2.4232905162873677,-0.18789246580504343,0.43545236347931526,-1.8647140490784109,-1.132151668995645,0,0.0,0
8.761500000000002,2.373949683754241,2.69596848516254,3.6700520507811296,7.214861069624138,10.672146035874627,5.597647335364358,2.3848914552613945,2.20913873038676,-0.008320150009924055,-0.23975659068248148,-0.3975133477196595,-0.7691243180292185,-0.38946543688862456,-0.2997535141228413,-0.5029434266618327,-0.04601068157086817,0,0.0,0
8.8615,2.5344462480615393,2.2522601668137843,3.347670012971079,8.25391708785718,12.4394778844091,5.593740261934544,2.5972469667892906,2.822236650490556,0.22414864171365592,-0.56867859563256,-0.6549357315298309,-0.08298330241193298,-0.020560084487472832,-0.2946546880343674,-0.053968025589924154,0.8324638774799467,0,0.0,0
8.961500000000001,2.3984063590644613,2.508780676236349,2.772587481984206,5.952679628694699,11.769425516848948,5.296405876285346,2.139044766428206,2.600824564538519,0.07624548116704387,-0.4070455632306119,-1.0282161197513133,-1.1216946468335558,-0.22393277405327225,-0.4591314421687814,-0.7549623571971842,0.5047027129990177,0,0.0,0
9.061499999999999,1.8891472614390106,2.89764487208358,3.4233545388095084,4.436827270952642,8.297123926944543,4.0218492672834225,1.7589508589341207,1.860485741753969,-0.48344970313842844,-0.09467217473915221,-0.4622488434491428,-1.7384080247041778,-0.9495348667272949,-0.9235707184314489,-1.399441153769726,-0.42253877357488423,0,0.0,0
9.1615,1.8368425030699767,3.054470149927613,4.738869622890024,5.053355096009584,7.447056743417923,3.6754934267570087,1.6792147570149298,1.9016510820797279,-0.5671647849010852,-0.03250922292378733,0.46125173822698495,-1.5360335609445204,-1.134278279972345,-1.0366698325045107,-1.5774896296821626,-0.4362365358061511,0,0.0,0
9.261500000000002,2.8266206893757886,3.8353400837823823,6.652760015844953,8.041499155355028,9.891473774490837,5.179949954964908,2.500032366354931,2.8887534929418472,0.41240552215831355,0.5006140039879421,2.0387855403852915,-0.2765807634180386,-0.6669054795695974,-0.5330876666483134,-0.3541092247505931,0.740976042766211,1,0.125,0
9.3615,2.756605191295582,3.542506369511664,6.080712627776567,8.418239289941683,12.038443492165236,6.328853324149806,3.0406417789599502,2.876426970141853,0.3712006314593795,0.2508400308896508,1.4967213124221979,-0.03186365941171107,-0.11848080830524096,-0.001360560666278655,0.6583503727578365,0.7795969722099343,0,0.0,0
9.461500000000001,2.129359444908519,3.6032962087661224,4.695702996286671,6.8246811597522905,11.885121811093681,7.601979217503363,2.992958188866081,2.3594986745374915,-0.18486817256994523,0.31142599631375945,0.5457040987559589,-0.6866882064261904,-0.13574968223571152,0.4603161770215081,0.524954469248529,0.1957306130789994,0,0.0,0
9.561499999999999,1.8341551446250837,3.655040874042184,4.555066168492706,7.150893631782626,10.503588550371237,7.269379978068183,2.4600782450596452,1.823115740103717,-0.5146424336409597,0.40081089372282336,0.43854962970505,-0.5342254934500572,-0.4578618136933556,0.2845138704530157,-0.4147803186214112,-0.6289267407198974,0,0.0,0
9.6615,1.6885616302203081,2.7969114573637817,3.9366835243845824,7.580221239756209,11.223357640118945,6.208349240048304,2.625326481508368,0.9507228799375383,-0.6347969619986967,-0.13541161908026733,-0.0033552066874973554,-0.34364139427594603,-0.31002676187922945,-0.07008449934978647,-0.1420952464380659,-1.424570168268551,0,0.0,0
9.761500000000002,1.918282262757556,2.782421058807607,3.602511446192893,6.401620388923669,10.798567117525442,6.033091787285621,2.930956808218703,1.2640649197119294,-0.3942680708626461,-0.14404720625621054,-0.290234590778729,-0.9453483620990264,-0.45447721288516035,-0.1463563492419138,0.4806311359329047,-1.0950189132054873,0,0.0,0
9.8615,1.6685149080081023,2.5796772233465752,3.7775635708773248,9.818151149311632,8.364644264209556,4.71722971942679,2.5069645522464192,1.9377563635621533,-0.6577165965590871,-0.2922336558968171,-0.20568273891533073,0.12478209883626945,-1.0097599801933528,-0.6712976428599795,-0.17932334264804217,-0.31131933755974234,0,0.0,0
9.961500000000001,2.537687012409858,2.803785847149116,7.57050807704727,17.50541574059129,16.712609360293147,10.30229643652547,3.181011237038563,3.0361066390757987,0.02349240763394912,-0.1519567866214964,2.3557536127021894,3.792346609652051,0.5818920928855243,1.0322291382038726,0.6187418514154089,0.9610567793328266,3,0.375,0
10.061499999999999,3.547099227450696,3.146782427029704,8.524290534888543,16.62554477815176,18.985318162123487,12.448614052583613,4.0369957418872495,3.803293115463895,1.1577491844432135,0.08373302726375288,3.1955899918575477,3.1274212058235737,1.326511555954312,2.239398487346259,1.9757993584871618,1.893178178854365,6,0.75,1
10.1615,2.7488873802713525,2.378710959774242,5.374633970490101,10.279448006155656,15.17992627655647,9.193262105238619,3.224802535911608,2.9765847249328132,-0.03636976241517582,-0.6401565058802419,0.5221111822235328,0.6309408048793912,0.5329285930059326,0.9728444829208798,0.4127019186628418,0.5870608161252319,1,0.125,0
10.261500000000002,0.8407928477335942,1.5006603235540021,3.7846697953263466,9.31820462755879,13.069797939493023,6.314434210968819,1.6981995095401283,1.5397733848812531,-1.491524419581246,-1.131680155643446,-0.20811972933527845,0.40158091271206514,0.0869996545879611,-0.04379001211751834,-1.489024845718389,-0.7203349797252295,0,0.0,0
10.3615,1.1433234412699782,1.7520303901229013,4.137559458125862,9.496846282492097,10.964831295203378,4.747006414813589,1.8286030870217966,1.558571475942054,-1.197608649086808,-0.9207784542641473,0.13416352458102637,0.48864608279800237,-0.3491104886744544,-0.6427145836838207,-1.295760081489747,-0.6881285739470802,0,0.0,0
10.461500000000001,1.3914325850251752,1.6698100291155125,3.4047429667398372,8.761509823534219,10.702262088557596,5.7739545862212225,1.8342008487915615,1.3888098268557676,-0.9006853994430831,-0.9853054811248808,-0.4718260465011954,0.06545768856927671,-0.4186907621663043,-0.29645309548868637,-1.2557099058584271,-0.8859890696648677,0,0.0,0
10.561499999999999,1.9068870383978729,2.3255634577091766,3.5892442474761945,6.830011115756335,11.582679507633994,6.838067323635352,1.8618992982407612,1.2349463321358893,-0.44638561635419793,-0.5683340381292633,-0.33445676068234753,-0.715297963732597,-0.23577209761598605,0.16159168847977923,-1.21727756348428,-1.081533848126921,0,0.0,0
10.6615,2.1205370046440595,2.7895058334562726,4.922502001145549,9.622139651638667,11.544128091748112,5.402940072735337,1.5190169699967155,1.030217886710923,-0.186944551229749,-0.14798399381136934,0.7025876784059237,0.41396859179034246,-0.24278877871364485,-0.47345961079235055,-1.9383528673649073,-1.3194857990465503,0,0.0,0
10.761500000000002,1.9880104064565465,2.9869404524540735,5.722849024865037,9.797449942324894,13.173829600391702,6.427356060169293,1.0562514277954531,1.0382415197243244,-0.3343260705859109,-0.008681998349056731,1.376766765995556,0.45213783496623916,0.0952171358461405,-0.13421586270664115,-2.5389095649002966,-1.3281836350283265,0,0.0,0
10.8615,2.098406514618361,2.718257565317129,5.8016701277048375,9.623459996574118,17.656779245905476,10.029311857608622,2.2238364388922625,1.319405057696682,-0.22327931089963535,-0.2790698616609374,1.4604876023488242,0.264783362059817,1.0890890619483393,1.3597763656221622,-0.941589167066595,-1.009640968101182,1,0.125,0
10.961500000000001,1.8995212193421929,1.5911425974559306,5.168644724333559,12.197740075437556,23.721416291883788,12.360488240996867,3.256654192226206,1.3416104449296535,-0.41105486462379376,-1.1430876525714293,0.849575558810005,1.466543956632563,2.3891203246524473,2.2798096993575165,0.9061464112118691,-0.9618239244832687,3,0.375,0
11.061499999999999,2.2351924649609085,2.705098947448192,7.207655126846764,15.347514514915051,28.383114083493844,12.26242822057414,3.1792771040487744,1.8587727319101788,-0.13530707681116047,-0.5916133991934341,1.9599338144700509,2.746068898760285,3.563182379419905,2.250105867203069,0.772433393270757,-0.47079949827041384,4,0.5,1
11.1615,2.689997019114367,3.6660442634641313,8.680947120308693,15.407167370047913,24.306826978408452,9.554430387413202,2.670312493288247,2.1525570921656425,0.3121822558474906,0.31969623920285917,3.2882118231438295,2.66092976193227,2.3307887056794487,1.038870388765109,-0.01178870034134904,-0.06726152981250869,3,0.375,0
11.261500000000002,2.2064105208241744,2.7764828153294205,6.348166253549317,10.536023865805944,16.577342103980648,6.160568832918814,2.9757824173820864,1.6250115180720586,-0.24983821715972834,-0.40030593684889887,1.3480210601352962,0.5597457008040013,0.7256814553419185,-0.2902246886855927,0.3871098254938742,-0.7210352144480657,1,0.125,0
11.3615,2.218200919980603,2.46350079316085,3.5589042609805768,6.3054949576503,14.939911434838091,5.714649603432521,3.9671560324351485,2.2157417355689955,-0.17100852512630518,-0.4900948343588262,-0.3429911095947365,-0.9749762571847252,0.5200162444064486,-0.3097177285935769,1.9691606972641753,-0.10858581118131809,1,0.125,0
11.461500000000001,2.844756140523119,2.9482818176036094,3.6571598279935236,7.056804324496877,13.324871543450175,7.227103844843597,3.7568450486939478,2.7151451236330426,0.560801561231505,-0.03684355073647788,-0.31181038205797545,-0.753884816560607,0.1683129978374502,0.35039575768998105,1.590902680813801,0.686819963711371,0,0.0,0
11.561499999999999,3.3268626163346724,4.0353247491205355,7.017106945906295,14.898642076705311,16.59903209886989,8.441731208926253,3.0731144481818156,2.8177435064103125,1.0330964490631755,0.6252425681031661,1.947723140173201,2.393476078889798,0.8274129729269762,0.8240302307609139,0.637635486370112,0.8196996175611733,2,0.25,0
11.6615,3.2130597377688237,5.041870091316095,8.0501529301847,16.205423041003957,16.128218968232755,7.455064371840596,3.365478689400728,2.6684339121060328,0.883203435841951,1.4609874492248005,3.1442227847010487,3.2857463820295885,0.6356711147101413,0.34411238514261994,1.14107657189346,0.582156241883447,2,0.25,0
11.761500000000002,2.561720175269175,5.911056646473099,6.908201887775499,11.087098280191157,10.774227563490037,5.133426727019779,2.6750852231204103,2.0942457580465903,0.25870452730784815,2.0527224312994288,2.318977329958961,1.1488977581777855,-0.4396779206222894,-0.4868013622570292,-0.13544248712260418,-0.10279898906040645,3,0.375,0
11.8615,2.3420231217578458,5.433490323141522,6.425430295362122,8.188640107810803,12.275989944146641,4.957180059968828,1.8314771590333006,2.260666360369013,0.061511468932234525,1.5608591441345945,1.911834750570186,-0.1325730932500875,-0.06198123340147618,-0.5500702243154483,-1.295993576747229,0.1152611813909169,2,0.25,0
11.961500000000001,3.0734693852639356,4.2471939682183555,5.950607550755139,8.468742156831421,14.368725920967297,5.191453765567,2.7614601975849333,3.193281355161085,0.6884816632640225,0.8161950419395144,1.5629259495221524,-0.03905509490918908,0.4418284064794146,-0.4789327939602246,0.01692710156356395,1.2101318247336599,0,0.0,0
12.061499999999999,2.926187002896586,4.096121973150645,7.888039643009536,10.431249599352988,15.283549582338072,5.6345675699250855,2.5498693420410405,2.8771630840905202,0.3283063918634626,0.7504782725552357,2.9869093226921475,0.9101520847112735,0.5919539269694307,-0.3179231338052936,-0.65744165377912,0.504043959916709,2,0.25,0
12.1615,1.9171090539396443,4.98801653427191,8.620289531110174,9.159431986923714,12.101962935153978,5.5080514321867575,1.072903606913746,1.303264508694767,-0.5893982007238596,1.2553611230091557,3.682917314019749,0.26172610479318903,-0.29628316812330135,-0.38281069613848134,-2.6749933957541163,-1.2001093639144214,1,0.125,0
12.261500000000002,2.0245135631069986,5.796939572100842,7.002733841989146,8.049100370646345,8.992688159765057,7.031555752360855,1.8215102846150912,1.1618468998573988,-0.3539078913251911,1.9361142981115806,2.383183633992461,-0.1459200272833519,-0.8236013141633244,0.13204596284554287,-1.576607101336306,-1.2026442440698737,2,0.25,0
12.3615,2.2401189224000144,5.073062040229577,5.911177229509365,8.755963189277029,10.35835471834563,7.171964052172262,2.169379540635738,1.4117325808927905,-0.0743235609183663,1.457729981214436,1.5548705867009611,0.20319029818819537,-0.481597232132343,0.2493996257750296,-0.7890708456773103,-0.8628848378212334,0,0.0,0
12.461500000000001,1.983847108915589,3.582141659609838,4.813676991417712,7.761795852932089,13.36331246523323,5.318017460537466,1.4202852237913444,1.3335833700387092,-0.3662073309263215,0.2369983181719716,0.5775362223420756,-0.2737882128807003,0.1459022989919112,-0.38556834244594335,-2.181515302540503,-0.9714592922589114,0,0.0,0
12.561499999999999,2.6325865709198153,2.71614752566758,3.839054065734381,7.530092082949456,12.687311804454845,4.250108095211619,0.8077531323215459,1.6273171141423455,0.10740896153781149,-0.2691075470865895,-0.09275914281811745,-0.41575729777821,-0.06812063890569059,-0.897487640784426,-2.879861606057848,-0.6803536617653121,0,0.0,0
12.6615,3.811925677736321,3.1889177331158733,4.27424060963658,12.691451540764831,10.869413549345307,2.585629472341146,1.2401871791698722,2.112907060117075,1.4432268030098339,0.11588560763480706,0.25743558272459405,1.6478148233175975,-0.41823363915913575,-1.5186981552462657,-2.2368890827764347,-0.04264894622776005,1,0.125,0
12.761500000000002,3.162906025377861,2.502227872146673,4.587076379491044,13.521134507391105,12.390753381215381,3.2947099055695097,1.7723011971653428,1.780190444106219,0.5162270865405927,-0.4680699516088756,0.49989891668360786,2.193026354298997,-0.012919047119804511,-1.2559330409312934,-1.3843142210092856,-0.5460792610867689,1,0.125,0
12.8615,1.3092592275153028,1.2716187992551036,4.793153921869763,12.623481353819662,15.522388589621242,5.74191361231539,1.8061434117319195,1.3385859697117855,-1.1221320878052414,-1.3184518533360698,0.66349687811695,1.8253081384885947,0.631465693838736,-0.3047637092632724,-1.304483371207946,-1.0130237618617235,1,0.125,0
12.961500000000001,1.443515460916928,1.9982539781018438,4.698010498111981,12.7354766353417,14.001618722025858,6.434638553619305,1.8609705883660619,2.0815458461955116,-0.9406662716645059,-0.9185891890201351,0.59250119271298,1.8868224555650739,0.007859176622638504,0.0055301206896516564,-1.2374411231763127,-0.1701948631017539,1,0.125,0
13.061499999999999,1.431182792804294,2.332109636045936,4.319703182508183,11.134491676323108,6.213841719393787,4.9839378271429515,1.7660567658892043,2.022938577153044,-0.9591115287990815,-0.5204214407634461,0.2590206292096802,1.2295213589023326,-1.5585629514308434,-0.5726870071075506,-1.4341555580653256,-0.24844144674093777,1,0.125,0
13.1615,1.5792214184826883,3.157094141078887,4.849227732766551,9.645895238089617,8.002464427661998,5.120618338388725,2.7647565066254884,2.058271092245116,-0.8793887741207118,-0.08062763633417248,0.48648985347178025,0.4443379284794016,-1.14441789286291,-0.5117461142741159,-0.27008610546409473,-0.2208470617880198,0,0.0,0
13.261500000000002,2.5255995595980423,4.637170294632324,8.034497346127472,9.884058325317666,12.652745863307905,6.527507987422927,3.878961238820461,2.778447402115806,0.14574076898712546,1.0543380375177651,2.8035677444279496,0.5226207060108335,-0.0023423190927078464,0.06418451203500791,1.8733688180145935,0.7464139809376789,2,0.25,0
13.3615,2.3873424911703394,3.7844764675182927,7.482020316122916,9.45205656721159,13.356784317943381,5.7574377184984,3.4504013465336896,2.280515403855491,-0.003574021670653081,0.15984750119477767,2.1702528885012464,0.26309600631440133,0.17890842636503632,-0.3097713700969869,1.1627668380598062,-0.025022894880656055,1,0.125,0
13.461500000000001,1.9883651089527066,2.2618833839311074,3.5668146973214157,11.577911102038131,15.237013428744568,6.011437703930312,2.6864711837052586,1.2843362375889003,-0.3189902371038892,-0.6211508762400022,-0.35468727106697967,0.9833281544796348,0.5587867478219792,-0.2182558291096331,0.06109926340610654,-1.0161135586890633,1,0.125,0
13.561499999999999,2.1891489618755,2.624631889266015,3.021407853042935,14.995131268341343,16.654572383504835,6.5533642526269045,2.3572682315687783,1.6110767722496608,-0.09142798573193492,-0.293297581242318,-0.7987821300790062,2.84545408094727,0.9099365184013838,0.05824161035345155,-0.502889479405327,-0.6616138238447293,1,0.125,0
13.6615,1.911722109176138,2.06299436683886,2.1007631818960557,10.945590690758753,11.876921839258289,4.780283734337275,2.18568563378058,1.7814146767912478,-0.3897664692511206,-0.703188542793432,-1.5377409083683327,0.44249751783337515,-0.33755359425246617,-0.6630143853538232,-0.7014104136595312,-0.4240888104357925,1,0.125,0
13.761500000000002,1.8562976317322737,1.9883623329377034,5.245421648492854,8.423858854387568,11.43190578057924,6.6683881327123515,2.1218195289531625,1.4625705722796931,-0.4425410032435015,-0.7289381328696551,0.24106694263012393,-0.4333046113603051,-0.38594470146512444,-0.07192119037504617,-0.8023742863221339,-0.823387716462543,0,0.0,0
13.8615,2.107093978542312,2.7678471006864602,10.249059635190338,17.808328889827607,20.153674839129888,10.058353536103198,1.9567154880901405,1.4198730044033192,-0.18315659638926707,-0.19030161519868355,4.578996935750748,3.678148037428338,1.5752160264438961,1.411535004568981,-1.0458293951768625,-0.8765941182982828,4,0.5,1
13.961500000000001,2.1220761849940653,3.3693006984370397,10.058563755577097,18.32766581250659,21.80808611577594,9.868507586526125,1.9491585729316026,1.7356875018789166,-0.16490122002222024,0.2638339680005588,4.440034422289759,4.087439230379345,1.9673860834823063,1.2804893157414128,-1.056577677739652,-0.4893256204802194,4,0.5,1
14.061499999999999,2.3225330939966233,3.94413274925182,8.415379457946202,15.611768412561995,18.63325274955311,7.3675545311943775,2.0736917446992305,1.8714297152054664,0.02457380802860541,0.6658877799189795,3.208732122548286,2.916197505877408,1.2287764840642956,0.31920180001213344,-0.8850716809054674,-0.3139315161533666,3,0.375,0
14.1615,2.797231592541819,4.837930017365182,10.646070122308902,18.97955814091911,20.326956073857385,6.210684552917623,2.810618250956059,1.9028726792352904,0.5018068995301975,1.3051852930318462,5.065289129000032,4.411220460940407,1.5617919660118693,-0.10398172207560168,0.23359975281334472,-0.27924698102249196,3,0.375,0
14.261500000000002,3.7903802915578377,5.269369253140188,9.045825477509933,14.66916170282393,16.201229816164332,7.212875989155883,3.5417863507902427,2.7387318681848685,1.4400284019579146,1.6169157391894275,3.6291652686327747,1.857210424159229,0.25826700825780763,0.16515314208847934,1.4388338272784102,0.6135653903650437,3,0.375,0
14.3615,3.8432120835502954,4.362591074828842,6.882707482139378,12.948328688302286,15.041883693940987,10.383613867938408,4.2094491673251895,3.303899172446762,1.503017312505643,0.869744854363884,2.188657460332335,1.3925890307048479,0.14973206735440944,1.4184335196572642,2.4782853414610293,1.4188476808291306,4,0.5,1
14.461500000000001,3.125657701150866,4.012318693367108,8.013100312571385,15.157861536693588,17.918734919000155,9.665969559055043,4.57873091009563,3.3226742081839182,0.8441575319127295,0.6708687976415306,3.0757754672414808,2.7776188406912348,1.084844817627916,1.0778566192679997,3.0900289874494797,1.4412962635066253,3,0.375,0
14.561499999999999,3.553528049677437,3.9844743794603494,6.5341233396695,11.236082033350113,12.597474305524246,5.2557992722625055,4.962275460586477,3.4666946129557563,1.2400404664760398,0.64395913264602,1.7243788730057164,1.0482928570079209,-0.15965012179156998,-0.5208498376726708,3.6697122031477982,1.6136475208768235,3,0.375,0
14.6615,3.3364819496569016,2.5131473493415544,4.020668589479798,12.074271418396327,11.074735794811915,4.218034446763,4.469444388088914,2.9470020783470536,0.922494688019436,-0.4680175496093406,0.0398232665437233,1.5176518111551514,-0.38081285882942084,-0.8193709034182529,2.7245433209896377,0.8699787634262489,2,0.25,0
14.761500000000002,2.2670793194013705,1.2989822115980618,4.88310650728214,13.747134598922504,12.11053820022468,4.226015500638697,3.405501124511163,2.5048767612687053,-0.10744457214245624,-1.251029639328569,0.6578925391237612,2.439818413621653,-0.1084848833975579,-0.8338795903497703,1.0492421565544758,0.259305210894974,1,0.125,0
14.8615,2.4171846484085155,1.8594981498481866,5.167233870019552,11.198710986202203,13.78150125071951,7.527332072227946,5.350682767907041,3.893122403529535,0.07404128437133344,-0.9320078002775702,0.9335920256584386,1.1221683819494344,0.24751374610887872,0.20734692070775818,3.6982329921426036,1.7671666129050365,3,0.375,0
14.961500000000001,2.4010408525204885,2.5420579026742716,5.06045340321215,7.347284982066563,13.255168269623368,9.152619640723469,5.432083561638951,3.637040149004903,0.06573817086336402,-0.3277837770824526,0.8607006489679598,-0.5778505406876612,0.12732571770157125,1.0713823692146653,3.9913194152276894,1.4157881460094066,2,0.25,0
15.061499999999999,1.9903871200484253,2.8874817753556727,8.110570258392615,11.482152963708597,12.96351293601883,9.003085485320101,3.8779105140880987,2.5273241534751945,-0.3006740775577741,-0.0847485327213605,3.0155576247502633,0.9238077106896321,0.07181715841356202,1.0258391451858992,1.8987035646312052,0.40008747348680884,3,0.375,0
15.1615,2.4318058016758237,2.8981596192504546,8.077634649051562,12.11854468554153,14.207596389120363,9.12688034155144,4.184692541130452,3.054338412357893,0.10605251114490123,-0.10101351440161606,2.883950348473349,1.3599143831167622,0.39795205169152537,1.0880006258823713,2.4641005087752923,1.1141621220622455,3,0.375,0
15.261500000000002,3.2410717866707808,4.1613828800281585,5.5573595423726045,7.782759915275968,10.336856379757625,6.8774859758104645,3.79228642897906,2.820000927744888,0.8972495651357137,0.6590757187161553,1.167105917008687,-0.32191812108022,-0.6510559002803272,0.06145809230915661,1.7294798140556056,0.8208399992156937,0,0.0,0
15.3615,2.9956712293918386,4.213987493073975,4.376397290666255,7.303924352051315,5.993009899673524,4.105022054035025,2.6568608207167785,2.39991083180513,0.5911030133642255,0.7292860738631122,0.06420438206279966,-0.4510026824457073,-1.5530429016828111,-0.9144914498331215,-0.21765740275435175,0.3315617256739746,0,0.0,0
15.461500000000001,2.023241181454161,2.705681894996731,2.6593686435060997,6.965500679599681,10.63408594061331,6.170434231752644,2.980876883998083,2.1189777933504397,-0.2709536867151839,-0.216298728920236,-1.042450981337888,-0.6062090242166286,-0.6581929519982949,-0.2271468410832385,0.26673205316410514,-0.016997317095575046,0,0.0,0
15.561499999999999,2.3977664079559595,3.153834808045646,3.4622141424166175,9.341116476522076,14.352646520479427,7.304796135778873,3.901067687812914,2.723193230906446,0.07852249454636984,0.061745290574832495,-0.4892893175910118,0.3194652330036451,0.4311200363949576,0.3630546339705464,2.0011204924696866,0.5921232568408825,1,0.125,0
15.6615,2.239543315696155,3.415287748083556,4.293435907055908,8.763346099325767,12.522927788269735,6.549336774321558,3.661445727568303,2.7241817460024835,-0.1588616551027243,0.22833663433461196,0.15638003914478193,-0.20076163120027427,-0.04719510223003696,0.08933250261997477,1.542429643995836,0.5508779973936886,0,0.0,0
15.761500000000002,1.8934326978972507,2.474846327776555,4.705218192056298,6.353077504889112,11.396181376803328,6.331147129342252,3.543750347947763,2.027677191748473,-0.482950449708723,-0.5317748744176164,0.5078650181972457,-1.1674127337796745,-0.3322302893589444,-0.01247109946986868,1.2450154070338335,-0.22739228924221674,0,0.0,0
15.8615,2.1455604481044612,1.7459962576073222,4.722635934083614,7.095459318589564,12.706008526985068,6.702580262543807,4.485442274620897,2.3882299174813153,-0.21955932106006049,-0.9078052394598873,0.5498672651426453,-0.7387502118716626,-0.033351911472178024,0.12474476739595167,2.631334187884265,0.19264255501008778,1,0.125,0
15.961500000000001,1.8252436640260516,2.198838594878012,4.313024628243223,6.7577684255610535,12.344189967725448,6.76648438609538,4.093458890854596,2.262010613859287,-0.5272894705954152,-0.5695618009485747,0.26765944319585155,-0.8083678189199436,-0.07034365022783243,0.1608963531768418,1.9174770888172816,0.0671350077464485,1,0.125,0
16.061500000000002,1.3800877970352199,2.2141154097149256,4.58421917151827,8.4918555526645,12.41352311807496,8.25358669714227,3.8800623004737105,2.1272950004409092,-0.9364426339615268,-0.5756842091971354,0.4634354439444565,-0.016957646819869002,-0.007392631379460764,0.680654361874044,1.7488295653643207,-0.029956340845880537,1,0.125,0
16.1615,3.3079959448586638,3.364129828662147,5.6253516564161785,9.568992405211139,11.254773475642912,10.215791609677714,7.429326073736303,4.345682398493139,0.49417402719539416,0.10046893312255428,1.2782368691128199,0.5666963835652663,-0.286848514504552,1.5054579259661887,6.7644162543217075,2.1811060462165743,3,0.375,0
16.261499999999998,4.908936967237532,4.332808732916898,4.943038857466118,8.059234397986454,9.948576800203421,11.27331902120042,9.655880282258572,6.108186271746714,2.481170585440065,0.9285946649508828,0.6154546828354751,-0.17045883316648347,-0.5576713953179031,1.8643704561840682,10.554199407915887,4.596246721223855,4,0.5,1
16.3615,3.9844932162315905,3.6240223699791003,2.9983964220398605,10.035851085199859,12.140688064164939,9.509220836916425,7.374822832625819,4.969589065907794,1.2727065326643348,0.3537039621920181,-0.8012601123508708,0.509077257807261,-0.0899121865437901,1.0226762458558847,5.854842379276389,2.857947391642733,3,0.375,0
16.4615,3.199634863150291,3.6776756514743374,3.806574525166818,11.588193396215678,12.723208327841586,8.502019598503836,5.288741718016032,3.415619444165773,0.7119609062791586,0.40221452742653,-0.26382136596911904,1.3710082285499205,0.03532122627391799,0.7429776562790841,3.6288764390223127,1.4372410558117026,2,0.25,0
16.561500000000002,3.407647763647834,4.209291348058379,4.460079326469776,8.909433933759145,9.968496896757893,8.704114474805804,5.3540227022838796,3.3983828745444105,0.9848517118628027,0.8598003748921866,0.3906710506160715,0.14552328158924288,-0.6179098937289518,0.8464816712899043,3.823578414618506,1.3419396430965318,1,0.125,0
16.6615,2.8660052463860466,3.9821694190979784,5.5136634840992285,10.00618908750564,11.355716806272204,10.584683165094756,5.759067086367113,2.890043491103594,0.5055745375213603,0.7116098068341902,1.1119939826766287,0.5337148748365184,-0.3480258869217707,1.447520994458194,4.300561323388794,0.7995604061320933,2,0.25,0
16.761499999999998,3.133079300016762,3.865614628632652,7.36707867752684,11.174219514442395,12.873880302573694,11.520662721733059,6.350437037203037,3.0287919137974337,0.8295499478798094,0.629456400911024,2.6764640582965296,1.20108711743275,0.07479451701577772,1.9259718767475125,5.661107100733123,1.0598493765561603,4,0.5,1
16.8615,2.783971084456495,3.387782031220748,7.028460818898897,11.003555263754384,12.274354118909395,8.267230725332244,5.235229668517736,2.7442891544998456,0.4535616002331158,0.2620411328541142,2.305457143154496,1.1724475633565672,-0.03807157297511044,0.7003249312263432,4.113167506943982,0.7241296449222829,3,0.375,0
16.9615,1.9424937597372074,2.557968278423213,4.914980669613389,10.877361161949995,11.247909813757921,6.140724870211792,5.443898769772747,2.3544562181262445,-0.4441142514676378,-0.36939816254142627,0.5949018411103119,1.1188495305553359,-0.30481016830410457,-0.10127031718903963,4.444209712609865,0.22689607798396094,2,0.25,0
17.061500000000002,2.889896874050645,2.925461531868123,3.8175363021377797,10.186683821016205,9.143823234059845,6.196487002720004,5.673357630413503,2.9281113712185305,0.293497114441683,-0.1427258345127078,-0.11357883505960967,0.8124051541287224,-0.799757761828495,-0.13822714157984697,4.81440399014767,0.8297831364154384,2,0.25,0
17.1615,3.339404458123919,3.3894081071783244,4.298624662892497,11.471035830099428,14.05131029835521,8.005773641662095,5.290697114579455,3.3579687887260956,0.9677357275003284,0.2754682100802949,0.2591980224789901,1.384505818158773,0.17365480481826637,0.58550056163802,4.149677031873735,1.4518817666639776,2,0.25,0
17.261499999999998,2.214440006478855,2.4842765994473233,5.10111384897257,11.95570023036514,18.185048528532537,8.532704170940795,4.543426791450029,2.4948777257530397,-0.18262255800799096,-0.46229907995053837,0.8995246054734184,1.6253001808685028,1.3239914315748436,0.863474924709056,2.9847608983728913,0.28438411043266215,2,0.25,0
17.3615,2.570878671059485,1.8641533850542977,6.143644025902849,11.618249534704931,20.56229712964646,10.208491128958189,6.792462341705901,3.3925679988471527,0.10381223046217575,-0.8487554907912787,1.671223430375392,1.4301034416786111,1.8182173577803722,1.44379409977387,5.9983511151260585,1.0950553920822264,4,0.5,1
17.4615,3.0905917616414835,2.723574770444388,6.949555904624607,11.723172633124324,20.104303358959342,9.556637720932535,6.87442942217673,4.090070951991819,0.7690493906850591,-0.2535505397815606,2.305765925605105,1.4682381859937303,1.657906335525886,1.0126428493438717,5.919297711517569,2.2659427450742515,5,0.625,1
17.561500000000002,2.808203993737559,3.2559868153222125,5.9380392140146885,12.12501019069492,18.27283282350797,7.695376219245248,4.225958044684136,2.9694426217360914,0.38180482613888145,0.11760568584244262,1.4249028529680603,1.6700621738863402,1.2827164894423648,0.37582649983014554,1.8249305823073798,0.7574488509512786,2,0.25,0
17.6615,7.1963188866916346,6.83642326294884,6.226984631681445,9.963760295647223,15.589521549111746,13.353497050989619,9.183850667360497,6.547780799742041,3.8110594202477177,2.1925065359581,1.5788767962546706,0.549338455601103,0.601188777324567,2.449318748645129,8.18131496427992,3.9401110740727394,5,0.625,1
17.761499999999998,8.346574315690175,8.124999149628259,11.485868615572654,15.930361039658878,16.912936423075443,14.239927738724171,10.281058801168117,7.735893761015662,5.838369359759949,3.600282425749592,5.455050678898732,2.379550930456606,0.8121325681118037,2.962895368973689,11.475225322240341,6.486422175190261,7,0.875,1
17.8615,5.3950514147361055,6.2160180956308215,12.484830926960484,21.53193079696373,20.46290389008164,10.4810627341532,6.173836968313737,5.084109796649864,2.8198579683678737,2.2298276047259686,6.217382542527499,5.4779250793226595,1.745095126230459,1.5915241555825086,5.021362019545897,3.237870264735476,8,1.0,1
17.9615,3.31705767227292,4.43293003600918,7.766394055814034,16.22873768269162,16.233686782658562,8.544135488453316,3.5613023556667587,3.200705253141673,0.8742604183295606,0.9212836331638844,2.1097222169908316,2.589777407958023,0.7056881651129899,0.8136020291331372,1.0299815772896324,1.1289973493784797,2,0.25,0
18.061500000000002,3.441093667175752,3.8829471653774807,3.766850435787963,6.373041682746527,14.693304039166668,9.174931080404313,3.840758844961917,3.1828416377315047,1.0727335839499395,0.612440373693641,-0.1418962475863008,-0.9945093021190007,0.44054239205298396,1.0258334325063772,1.5596439571357736,1.2012888942943507,1,0.125,0
18.1615,3.528404040432576,4.34642418493835,5.262771387949442,10.715377320987535,19.954601676747014,12.058139467006878,4.191882510370106,3.1749470652486806,1.1802959004292373,0.9691083072629187,0.8783614698448576,0.45724139361619975,1.630291079469558,2.1583898511895985,2.372824520086388,1.209769186755866,4,0.5,1
18.261499999999998,3.2277475336893215,5.202511983592415,7.590051257196649,15.950485052260337,17.931518701617577,10.174106900102753,3.7440834320193686,3.0603167514257255,0.8057986616119543,1.4656317292530545,2.753800088822542,3.2813665875197313,1.0289951947192568,1.1788609256022269,1.7463092438589722,1.025043115524842,4,0.5,1
18.3615,4.3132607436586365,6.4081606303962335,9.17931950996911,16.287293859495268,16.37916111415892,7.271424870149849,4.408350909598212,4.273383101407714,1.8045606783631922,2.2754939339463136,3.992419038687005,3.531265766294997,0.7867900558887503,0.31332768617992535,2.7279040062394713,2.365609699272585,6,0.75,1
18.4615,4.539603696625735,5.746864593894838,7.947811544576628,12.606987078743055,18.213737819088756,7.973148362813179,3.9565575035074274,4.06401665837243,2.142958654340921,1.7537652273255215,2.87261075386873,1.7571606756133387,1.305394955655078,0.6193850261071069,1.8859894295807518,2.0738077717641388,6,0.75,1
18.561500000000002,4.135400190671794,4.735101296508516,4.9796704390478075,8.110374040609665,13.18174526802617,5.915852521887847,2.464739361163174,3.0105703682164626,1.7931037089105584,1.1903062365233865,0.7144169125742947,-0.19747349265214667,0.0011717183378348916,-0.2774493669712151,-0.3952286021716938,0.9825169135824956,1,0.125,0
18.6615,3.2947998319125325,4.343936204074737,3.5330518585535287,6.57222220302173,8.829027662996175,4.719759438993266,2.3420286322104453,2.4103680782620556,0.7632576881901751,0.8822839094301972,-0.49402929188747324,-0.8736859288457439,-0.8541735483058595,-0.6487863525011555,-0.5744236040713944,0.059949446691367904,0,0.0,0
18.761499999999998,1.5733714521528706,2.8260879001978823,2.3835793209990426,8.036556465726354,9.4918252456159,4.292358473276796,2.291762522514007,0.9697420689446018,-0.8326368177743749,-0.21119866282884242,-1.2863114895340366,-0.2168850884965856,-0.671554663857782,-0.8792200048655302,-0.6786416255500092,-1.5190549155952886,0,0.0,0
18.8615,1.2296358980323479,2.1332058565613417,1.7429637490114347,8.016811795398885,7.952285842568171,3.6417500336649846,2.8378592565933745,1.2561394732142153,-1.087363895893819,-0.6179019874890702,-1.8368383839582296,-0.17854685004930715,-1.1066745288216964,-1.1122911167260021,-0.06753116998300956,-1.3566440378754203,0,0.0,0
18.9615,1.9223305000773168,2.0174797981169594,2.4555662928210693,6.013496261338942,7.130311772774465,5.726154898707504,4.067410918901908,2.2202379883507675,-0.42700066387866964,-0.7070821416274036,-1.4605403221994562,-1.0592643894598355,-1.2886631191184423,-0.3227257573436533,2.1532215825424945,-0.053758073940404126,1,0.125,0
19.061500000000002,2.0090069493283162,1.5052813558248133,4.385025655410841,8.42821550699152,9.223855838368891,6.426960886907265,3.7261592883322607,2.0303217741169135,-0.3642508629757269,-1.0799939501659075,0.14915179801321518,-0.15807744224425235,-0.7997118259283579,-0.022854224402089028,1.499798595114798,-0.3496171828911799,0,0.0,0
19.1615,1.40596946520102,1.2580122638283169,4.156457853405621,8.41066228985201,8.04276585902227,4.640554120206783,2.05050820749797,0.9221492116375155,-0.9706010569133734,-1.2424880437062271,-0.03740822672330936,-0.26855540289857216,-1.1156930480819627,-0.8300004631284452,-1.4349854409231835,-1.5520871605595752,0,0.0,0
19.261499999999998,1.451278112299155,0.9934985572159667,3.4029051878477725,7.577037222017372,16.282364406403005,6.495815777837292,1.8375980577132442,1.0227581858943637,-0.8732548323367015,-1.487861889096053,-0.530249098247573,-0.6987958930949314,0.2616092601715298,-0.29917113923918953,-1.6630233814518345,-1.406044862545266,0,0.0,0
19.3615,1.7561322338565488,1.313259040571179,4.74497663519455,11.205646647855419,24.350704645877336,10.962082734297702,2.694161050176417,1.5159696844471648,-0.5303551969694827,-1.3477906146433938,0.5731867627921247,1.102229667219224,2.617692972944425,1.6786705828742987,0.02898770615941275,-0.7672822685245012,3,0.375,0
19.4615,1.9337652015855962,2.2944594542430097,4.936652725383804,15.060734456112833,26.428562392346173,11.758902399814636,2.546956947606868,1.884581572849976,-0.3598863415796316,-0.5664300989833408,0.7222393809259177,2.961464349530159,3.209769768907302,2.09221339253142,-0.16798524599253856,-0.30910088106622935,3,0.375,0
19.561500000000002,2.0472619874515545,2.4526034216628836,4.590944751667823,16.912899178010168,25.85823193027217,9.365839555943236,2.126508254111346,1.733397855907185,-0.23940500688089952,-0.39252951774867845,0.4254491080066643,3.846780267305977,3.0810883555524864,1.1370071676598938,-0.8055116448223744,-0.5147902659798238,2,0.25,0
19.6615,1.884987371476916,2.2720349599169314,4.3826525347327845,14.229145324076844,23.349981003650097,8.06578034139648,2.4467497318753946,1.6335409242663987,-0.42565970418164695,-0.5112283599192364,0.24305752778921755,2.5047959297483637,2.4861789972217565,0.6891568930025772,-0.31030333593666737,-0.6229616463256306,2,0.25,0
19.761499999999998,1.2873185796308837,1.8998593261431012,3.4403668009342674,11.00697882090534,19.013841132203652,7.711314255021056,2.138884761746365,1.58150037106425,-1.1803457360555578,-0.8674463209981138,-0.5124661727934501,1.1837804366533269,1.4648417314912847,0.5353249392953171,-1.0864116207924923,-0.7308024860826543,2,0.25,0
19.8615,0.9556386649950893,1.0172072685186146,2.442124100846591,8.518992203817929,13.74418231154978,6.193922585754054,0.9356045917406465,1.1522156480073542,-1.4319856058449643,-1.4640402955642464,-1.2355497932761286,-0.183231059346525,0.23164225725040186,-0.08862396239093971,-2.992362863709019,-1.203868724426545,0,0.0,0
19.9615,1.3446774946160263,1.0187916682350666,1.7705271269177296,4.774230767955596,11.448662050245579,6.655836237765148,1.0628188733624515,1.0844371110170519,-0.964980553591326,-1.467977758878001,-1.8345986153385658,-1.6194073587086006,-0.24299631053125306,0.06611152928790175,-2.779083108454464,-1.2545509466212375,0,0.0,0
20.061500000000002,1.3825920349866898,1.7654129235465135,2.834795927529435,7.205770395233062,12.139364269825283,6.973591602057923,1.5977487525492262,1.012236259758,-0.9042537622666686,-0.9517484735174861,-1.1937061870641634,-0.6981004464833809,-0.06636652261504032,0.2150168461663512,-1.685377922248092,-1.356738651912269,0,0.0,0
20.1615,1.1982673702752091,1.8372225610370108,4.469600759730944,9.75954785576513,10.240264810936495,4.84379670465035,1.4622278851838728,0.7162174568403179,-1.0966085768265297,-0.849808867034203,0.33927678491639346,0.6241864859922329,-0.5509441750874013,-0.6408813465066836,-1.869529880512236,-1.7750486884685361,0,0.0,0
20.261499999999998,1.143201507054594,1.6138337079308478,5.447987511338377,12.092604876769261,14.649731817818378,6.6770392454532805,1.574442176925148,0.9248013240478847,-1.1522018752650478,-1.0041489102023238,1.1378045614693322,1.6343645836742706,0.17034038793496398,-0.14270254263080187,-1.7485876220928498,-1.6173796024588492,1,0.125,0
20.3615,1.1610457207429719,1.5805557280056117,5.419083790484872,12.103793999962228,18.30863824473137,8.631653040169166,1.8776371265482275,1.3436899951549162,-1.1440077788683047,-1.084467755772438,0.9793632643744118,1.5064816027474972,1.1992997292536127,0.7871080231313189,-1.230881306041052,-0.9995242148762356,1,0.125,0
20.4615,1.0814731016299766,1.1076589412649107,3.7283985374466484,8.851180181376158,14.237488937034623,6.905331890675163,1.617051775943999,1.218630916566895,-1.2168470241039244,-1.440270138215096,-0.6273502483717633,0.03298519700987212,0.237058500616201,0.0827450858086419,-1.6377857857713274,-1.1396023179529364,0,0.0,0
20.561500000000002,1.492694908910069,1.4345096470204708,2.927437114895825,10.506739423763712,10.38476089210972,5.547588527064723,1.7704556007249634,1.3143612649700402,-0.8682613750190772,-1.2208024225804848,-1.1009028937222598,0.7389269099195545,-0.5129830223664086,-0.37694783181823543,-1.4447280860822942,-1.1010845860355798,1,0.125,0
20.6615,2.10807490015197,2.170085805192165,5.064100226013018,13.125502490682997,15.05565612615639,8.634764299569996,2.874398660044174,2.0784923561955817,-0.22341844087007304,-0.6142109416792843,0.6555907779167411,2.0774337517183894,0.42195356425986114,0.7171806035352003,0.2177449281640936,-0.20424791535263256,1,0.125,0
20.761499999999998,1.9444331234562546,2.2499643673148544,4.707353479696598,9.784294050501218,13.713120207007954,7.818066454183912,2.8431649137853405,1.9373912847604642,-0.4061022729904655,-0.5307519809698682,0.28940865140140554,0.0994241588889846,-0.09309815354191735,0.2057319333126118,0.18862253671998336,-0.3854305408685688,0,0.0,0
20.8615,1.3556377626549423,1.9735880592545052,2.473090759726934,5.676491710907321,11.01668664484067,5.216427864167783,2.874830370292424,1.638240172667969,-0.9414816268518823,-0.7236546521234059,-1.259273362698423,-1.3765290834184258,-0.6701709902842197,-0.606967324065756,0.21588131586214257,-0.6576809297224321,0,0.0,0
20.9615,1.2113504958325152,1.6232071375555825,3.5209128986291938,9.88680522009554,19.715060420397364,7.95061304127923,3.140932895786836,1.7273761022622534,-1.1051143526051388,-0.9945339565271917,-0.5184230522150921,0.4435603795753994,1.408651519472251,0.53434110593323,0.6213295055320951,-0.5565061003353831,1,0.125,0
21.061500000000002,1.0834186972478557,1.4233738440956245,4.094996147270929,10.080893658360447,19.692190905967163,7.604776461756714,2.0420187186678107,1.1830592513743357,-1.2244146623401404,-1.1245710976419772,0.04161386395474774,0.5446159154718465,1.4565493138649859,0.41131723860979036,-1.3259356017733075,-1.2135526825746537,1,0.125,0
21.1615,0.8785948060544477,1.258220979454231,2.912202184163896,5.484470231263669,10.984002519308811,5.394425023121394,0.9145334802133068,0.7374290559779291,-1.4318045091998675,-1.270269844749716,-0.992821042006051,-1.6225842547442388,-0.5824347128083557,-0.3737898834131221,-2.697103167635862,-1.703375961288409,0,0.0,0
21.261499999999998,1.263724459744136,1.0939791697874144,2.95409556669564,9.341927167465839,11.468601477733381,5.681102524410592,1.2399068567498512,0.8135333143092235,-1.1565942598801928,-1.3863395359559314,-1.0093250212280829,-0.5453394037063922,-0.5278637078335191,-0.2781199933026398,-2.382111343369928,-1.6612182902000894,0,0.0,0
21.3615,1.9788990353671188,1.5150753962229153,4.817727023693855,18.065160403108333,22.22386620448127,10.586771182791821,2.6674200344941568,1.5875137021088856,-0.36981551703766447,-1.090125489816229,0.4867532723491776,3.7636665619925482,1.9336497085141249,1.360115878802132,-0.29361510373667415,-0.7763692900419206,3,0.375,0
21.4615,1.7587839854090768,1.4785590738846028,4.254962293316485,16.805364418386006,23.77783759823038,12.645842751946965,2.9403898473381056,1.912319227290623,-0.658224346356686,-1.1069639012815895,-0.19380063129435038,3.0596103992183408,2.419020824379771,2.302925583749627,0.36814192474499324,-0.28980034084328543,3,0.375,0
21.561500000000002,1.0841295274928275,1.066895679513024,1.8539526157468473,8.553510577421243,20.366100770800074,10.72290425201995,1.9484700674980953,1.400355235373516,-1.2338800329073525,-1.3814071688613323,-1.7705420663055194,-0.05298121741522219,1.5925422546225505,1.4495012400650935,-1.2237995226512632,-1.026831723527897,2,0.25,0
21.6615,1.5412977212928833,1.1810493388236747,2.8851868690857154,10.836493521559179,22.107736678762596,11.311258604558875,1.9292619460283584,1.1294032276250856,-0.8046447613736097,-1.3050535700024313,-1.0408316885232045,0.9559391378210674,2.011291695539307,1.738669092384345,-1.187357995728897,-1.255560771997432,3,0.375,0
21.761499999999998,2.1336113061649677,1.5243184208319378,6.0906315166418885,12.18453028197424,19.31674934265457,10.96381419585848,2.1146742059244623,1.8513137914988382,-0.16259581305117896,-1.050020894613629,1.3756694695755423,1.7231995019759092,1.4096585782529194,1.7019046355594087,-0.809056225027325,-0.3908206208901565,3,0.375,0
