t_center,rms_emg1,rms_emg2,rms_emg3,rms_emg4,rms_emg5,rms_emg6,rms_emg7,rms_emg8,mean_z_emg1,mean_z_emg2,mean_z_emg3,mean_z_emg4,mean_z_emg5,mean_z_emg6,mean_z_emg7,mean_z_emg8,channel_count,frac_active,global_active
0.118,0.6291526593189976,0.5229113868159702,0.3176272989653304,0.7043176688514581,0.43527343501300975,0.4348485804997974,0.38351147544293646,0.5147801901895787,-1.1213195095365953,-1.1312774740271967,-1.4492887895913842,-0.8252822838709828,-1.1827001038421783,-1.2049456544978001,-1.450171419431354,-1.0556182131466045,0,0.0,0
0.178,0.632964985251201,0.7257815608369611,0.40170836886274947,1.0413301184354466,0.4337704026586545,0.5869822508508177,0.42358872771149286,0.7238810698669977,-1.1145886014113044,-0.6836284604546199,-1.2991391040337186,-0.023841938517608918,-1.1852950140335927,-1.0477810392078064,-1.3974754069973903,-0.5768771499168399,0,0.0,0
0.238,0.5409996225802949,0.764838031652007,0.5286887064816931,1.0131003838680095,0.5187954222321264,0.9625190806626904,0.8415399389829082,0.7773488883651476,-1.3168264010099209,-0.5877148210758519,-1.0587381034878776,-0.11209101828241637,-1.0658388505665128,-0.606981702336192,-0.8128044910639983,-0.4391177288218688,0,0.0,0
0.298,0.5559986708532588,0.6299424738009067,0.6766749949127473,0.7198670954729385,0.6383129932332848,1.2007304558477825,1.1173080486749796,0.7220022499515025,-1.2857695059668524,-0.8840891349804321,-0.7797100574725082,-0.7574476919801043,-0.8755284472430606,-0.27656154543354594,-0.2593424665074124,-0.5591094166013931,0,0.0,0
0.358,0.7792510813427505,0.5806816627926941,0.8801097717723951,0.7761820128426844,0.6054170844748994,1.0576083465002029,0.9037633404486481,0.7487345981740536,-0.8309358770012484,-0.9802618461266009,-0.40187023218659296,-0.61968984156748,-0.9304291858774069,-0.4789689377024164,-0.6819158879335955,-0.5053092137235408,0,0.0,0
0.418,1.0855379434504804,0.7761800490296377,1.0168142306938979,0.7936871095627118,0.6734777825600752,0.7413824306833942,0.4794910883737642,0.8519646124059479,-0.1538680935395075,-0.5902126331138442,-0.12906026571821796,-0.5827484239875971,-0.850187422469332,-0.8504757509371711,-1.3198311905129276,-0.2811746374311203,0,0.0,0
0.478,1.1107081760659099,0.903967196872007,0.8426667825900448,0.5983907500923393,0.9118033957450326,0.6984740426878441,0.4419463041382601,0.7770147617743776,-0.08818647414768503,-0.29320732065248695,-0.5260710223649063,-1.065160536967827,-0.47023249554933305,-0.8895552124309787,-1.3701128137260719,-0.48034271522529837,0,0.0,0
0.538,0.8929713777866664,0.9456385948517718,0.5734963174101408,0.6188073946563284,0.816768024422424,0.7846563506175087,0.7653059047504452,0.4842531514123084,-0.555629824060291,-0.2062461232692362,-0.97638913558045,-1.0129532989204615,-0.6579237135214576,-0.780846496215771,-0.8860698441366126,-1.1566686558909334,0,0.0,0
0.5980000000000001,0.8267158050228398,0.9879914342012148,0.7980866615594769,0.7235451596289174,0.4915523932560601,0.7337019743115683,0.9821858050613836,0.3590609021899454,-0.686400073650443,-0.11611103217756984,-0.6003954648263934,-0.7269839765354807,-1.1178602950561651,-0.8470055893893765,-0.47242716657842715,-1.3882546115646512,0,0.0,0
0.6579999999999999,0.81971499331555,0.9688254405986878,1.040360958076751,0.748695410281525,0.6055926783671675,0.7753462695543322,0.8705310808814879,0.7277783952102596,-0.7045032761991227,-0.15805018548250246,-0.09180559122779854,-0.667289224852159,-0.9700653478483988,-0.8026914118009892,-0.6705470432065215,-0.686214314810877,0,0.0,0
0.718,0.955288612236325,0.8043669263350627,0.9663649420305459,0.8080571975312071,1.0351929617273705,0.8210510996673923,0.8002566290076474,0.9700880126782622,-0.43594025973976885,-0.5467675038924059,-0.24268830424457502,-0.5239958261863189,-0.32180965286901586,-0.7421658907392419,-0.7685387088427637,-0.034402909117747855,0,0.0,0
0.778,1.051714114720176,0.4919519732756088,0.9210689437912045,0.8494566994267239,1.3517008398929058,0.783195694582773,0.7695440941333829,0.7922785753955518,-0.20710806919430194,-1.2466717408406365,-0.3182252289707756,-0.42645977952367625,0.2221606309030788,-0.7876279928395761,-0.8399960289290203,-0.5180425582097559,0,0.0,0
0.8380000000000001,0.7966282442557465,0.28021809771768086,0.9743427125250868,0.9524594991703194,1.3698172434984506,0.9224863315098765,0.5823984490746673,0.36920783578046956,-0.8568090854763201,-1.6097202240193766,-0.209381519208326,-0.189735465331479,0.2531908152622542,-0.6231957074330963,-1.144824542353316,-1.53490689787057,0,0.0,0
0.8979999999999999,0.7834864555642798,0.7060619939938386,1.0431431618128792,1.1295623323591404,1.1572894002236072,1.0123568852917453,0.9679668022975132,0.302008001984004,-0.9568861428943025,-0.9512998184555711,-0.1034999161465077,0.22299181286369993,-0.08729802635466931,-0.5046984424955422,-0.6394318580888025,-1.737045970734921,0,0.0,0
0.958,2.335359870243029,1.8779912259213452,1.7128720269537139,1.5529168032949998,1.6140396948317588,1.955153250865022,2.6283881282814376,1.768199685528554,1.8491211032794854,1.3008427168124543,1.0186278202435897,1.1482346173161084,0.4370255660476558,0.35522064798710923,1.712777447137712,0.7461071638680415,6,0.75,1
1.018,3.617873183903051,2.7933022131445586,2.3619767779497343,2.055631401681878,2.757586604845791,4.2805360157352315,4.865978691735559,3.294275571272943,5.2458038787829535,3.5707139817510387,2.378788279738708,2.3852992907477444,2.2231846328175107,3.057537598911068,5.6056908690145555,4.746002496865674,8,1.0,1
1.0779999999999998,3.382549741589695,2.582205209062527,2.133684349722551,2.081450928749588,3.140626896778961,5.528491375982182,5.1825587015853545,3.273035230013338,4.683347076579273,3.067677111562505,1.8444074707669003,2.469708685032892,2.977154032821849,4.952285467335811,6.330093696636094,4.762357055239256,8,1.0,1
1.138,2.160683646276716,1.6481454754328397,1.3121586487088557,1.6951704097831177,2.62392617546962,4.656933805009256,3.3272279033311447,1.8431233306171129,2.077719079697886,1.1571895847171214,0.3344894331219915,1.5452800286556192,2.14230070621122,3.7472708522719507,2.9440933983036213,1.5030144249326896,7,0.875,1
1.198,1.4444303383891288,1.2435184776324804,1.343667105435794,1.5716756139250192,2.0780041132931535,3.0184508094363554,1.8060509790780364,1.0312435500596389,0.6169968944623653,0.40589012889582915,0.3956086636193499,1.2685435079362712,1.3291660909173872,1.8547452935047295,0.848684755827592,0.09139812324652243,3,0.375,0
1.258,1.291007972134241,1.4024533874777751,1.7310970876022864,1.6489820152154624,1.758597856601809,2.30504414198759,2.08614261950674,1.2889781289212494,0.3234110283458077,0.7277409383001304,1.193706916010283,1.44441526687824,0.8388083948421751,1.0620808733127989,1.3093806289467065,0.636507819759388,4,0.5,1
1.318,1.4505100205482253,1.4773944368984628,1.4511608977388497,1.3465101130127601,1.3505407410643337,2.2185921081544926,2.4018319945146733,1.6060328627133311,0.668556570947512,0.901512771681462,0.5192168686793209,0.6250670462107152,0.16693544772812788,0.9621904995251085,1.8930165801337242,1.371570496823657,2,0.25,0
1.3780000000000001,1.4481548904265609,1.204322817908292,0.7124679133558172,0.8965443897826901,0.951133239115902,2.150472472053765,2.0159754798332994,1.4874229767846239,0.6376513299628334,0.28724901360336985,-0.8562783230100037,-0.32580993229179755,-0.39588730685999957,0.8703025055511722,1.1460602460553535,1.039797252660921,1,0.125,0
1.4380000000000002,1.0292932216681865,0.8279947514134334,0.5934435115679535,0.7914899423838648,0.7696730374608222,1.724775036054779,1.1577746380491172,0.9219129169091098,-0.4801615860861472,-0.4923880029931041,-1.004803254714761,-0.5643790383777609,-0.6838244996817134,0.3148577796128951,-0.37951716138292896,-0.31981377767583835,0,0.0,0
1.498,0.4802688711468884,0.6243675526150332,0.9835242783850351,0.7217257963357975,0.6034129080256454,1.1419670663507167,0.48609065866461443,0.5198804293036868,-1.475807125080139,-0.8836522155835905,-0.24404431553664754,-0.7294251127552273,-0.9356971831427399,-0.39309001194787324,-1.332131299254954,-1.0219192810384954,0,0.0,0
1.5579999999999998,0.7490397954518834,0.6567674152430939,1.0916530691724076,0.6263105187927086,0.6101075598471147,0.8146575062522204,0.4172325594269911,0.8219053898178696,-0.9948471493917338,-0.818797204513777,0.004844445520148742,-0.9675036456742121,-0.9209788499783448,-0.7465524712796606,-1.4045688379950416,-0.4496265065648324,0,0.0,0
1.6179999999999999,1.156541508027187,0.8173583982033926,0.8891214711160852,0.45796589421750294,0.6052246892170546,0.7935632526408662,0.5690255875410386,1.4125319816324675,-0.016020474454528113,-0.48796830247545503,-0.3899315249228397,-1.392652075003796,-0.9275365513334597,-0.769019457679959,-1.1557978759041958,0.8385010335727867,0,0.0,0
1.678,1.1910019603567117,0.8125718202016208,0.8086277487845576,0.362999228191581,0.5630309311860306,0.9379855106222084,0.7216491566213232,1.596349997937589,0.08809197525698881,-0.5021004866452415,-0.5216398418108942,-1.587979470658446,-0.9873735270009458,-0.6064790868722477,-0.8973020026268669,1.3308758057690127,1,0.125,0
1.738,1.061106784491632,0.7298827671207317,0.8984272611639093,0.5213760199945299,0.586883451790244,1.2215910412409654,0.7824804076251458,1.234356145468365,-0.18603090627489197,-0.6751559468554346,-0.35333357502264856,-1.2427776925684615,-0.9492568380462728,-0.2662314386592158,-0.7895436596411266,0.48604609349001815,0,0.0,0
1.798,1.2543601784211957,1.1474387794556782,1.321976131254423,0.7900514446068378,0.6783481836232699,1.6078690831931746,0.8990714923704783,1.0763785997569486,0.21558440510231544,0.08282783490754216,0.3499717843956052,-0.6127146171400121,-0.8244463056753477,0.19844410053286268,-0.6091132803110416,0.19286056942430493,0,0.0,0
1.858,1.4556537092907542,1.5168867752334005,1.750196499126325,1.1914087563527558,0.9321995930292651,1.5517531528977075,0.9565404886664794,1.3459975889587246,0.6854740198499104,0.9726050695429388,1.2422150123125133,0.31335540218976377,-0.44437542719597595,0.10242828344351489,-0.5029774060677424,0.7856368220838509,1,0.125,0
1.9180000000000001,1.338104581587362,1.615678724357261,1.6245896973439498,1.4432668396538646,1.1636555014542853,1.0276739820974239,1.0349592016405726,1.3003003495051764,0.404160601231113,1.194548627171555,0.9757622139477866,0.975790620457913,-0.06574501276394613,-0.5317590466135554,-0.3911738340521138,0.6744656026652419,0,0.0,0
1.978,1.284262478888765,1.665077226684658,1.1669995005894198,1.303261857044914,1.2833877955364825,0.841661179779274,1.5818241030483255,1.2224180886208895,0.28778336809750954,1.2991892288866265,0.1250548566945132,0.6076034680313595,0.12363909114828499,-0.7162770765167908,0.4388430995985271,0.5089074665051015,1,0.125,0
2.0380000000000003,1.4936405380156008,1.769034777189599,1.5449749846832455,1.1949365841486383,1.5237278489420039,1.25253233380883,1.9514947023902267,1.386195518080131,0.7493222409934251,1.512398135871675,0.6646269282859804,0.346647641506211,0.47107469512614886,-0.2715788496608135,1.1312004562434304,0.874306368723493,1,0.125,0
2.098,1.3161610041450154,1.9063416619915388,2.4662578788474137,1.806101609836435,2.203484908365713,2.093574569419533,1.760668283307354,1.1682267867647231,0.293061534225526,1.7995479755756956,2.479892643526318,1.6595445106369018,1.4471744843002803,0.7107321587989756,0.7992847574869826,0.3184868375965714,4,0.5,1
2.1580000000000004,1.162152498486745,1.9643085343881166,2.6829357312699575,2.297538452488185,3.2219295890594863,3.095554494163501,1.4893949791415313,1.0539881976404115,-0.04108918284505895,1.918888939182023,3.0161278909957914,2.9930159672028496,3.013134501832124,1.96021920047834,0.3824569404679001,0.07753841046698091,5,0.625,1
2.218,2.430127719402445,2.3643640651815345,2.446566424587791,2.308489808073863,3.632388537465325,3.7137431934382517,1.4312212944903773,2.161743853572711,2.309669189532585,2.694581590878584,2.58487456341884,3.0283796912021153,3.7296508582386534,2.7733301167890683,0.2763330924732617,2.202161229017694,7,0.875,1
2.278,3.7137929019255176,2.83103490099167,2.643303253850159,2.3145589683882988,3.5431546089134485,4.826687787089142,2.342856134363187,3.3599789394566666,5.490350075051329,3.734530914045337,2.9293612241164992,3.033615693575324,3.5896818797041417,3.9979891336235056,1.5014523582941506,5.102092487648288,8,1.0,1
2.338,3.757174075313995,3.159677659765062,3.088569582987925,2.429476841862911,3.546015651017106,5.9188921323418375,3.1055057805349353,3.711337824936847,5.606670119273081,4.417483803667502,3.768266336876369,3.30147897205711,3.582846881865878,5.399407988709011,2.9839664280907954,5.982252630008829,8,1.0,1
2.3979999999999997,2.6271348192648616,2.949419513957776,2.861393361455748,2.118684668832088,2.9014866565204818,5.052859976024374,2.5334505467125736,2.909108126895861,2.9385440601290793,3.8622913200811517,3.2456851628616867,2.48237509236316,2.4473755458190642,4.1368383614846,1.8564303226733998,3.9531572656360177,8,1.0,1
2.458,1.5949675785932615,1.8331860622162386,1.755050683243803,1.6167789412828335,2.1392297252018357,3.120911887398105,1.6195017557459765,1.6999437711736718,0.9519746388117638,1.0812398794370246,0.9051147467904249,1.3770285649635696,1.421725173633096,1.9620176489687957,0.5698635184400827,1.4469740548535868,7,0.875,1
2.518,1.147050762248543,0.6327052784787488,0.7401110758525774,1.419120244827488,2.5919314673821936,3.805328900701053,1.9525261768907578,1.256989587655254,-0.11681476671036774,-0.9833082611543768,-0.7379052926950417,0.8960600962190383,2.089062624396551,2.6749541690629304,1.1004040263038706,0.6151713769369365,2,0.25,0
2.5780000000000003,0.6050481768503085,0.5738337401589627,0.826491371523623,1.0231282874573178,2.596583077866283,4.795522434496574,2.0836580970534935,1.0839025179667308,-1.3080667665438834,-1.0160191050480425,-0.5705725614176669,-0.18098690603593912,2.088593716914587,4.061166826825021,1.357138313119969,0.20434090004250663,3,0.375,0
2.638,0.7342701249026875,0.8515816517442191,1.3326777887115207,0.869289980985661,2.124049083704812,4.767094287317235,2.5038977670314986,1.2394025444022998,-1.1293536839303229,-0.4539869468664617,0.3990789498982841,-0.508571525641487,1.3861101387570696,4.046299105651828,1.9230882814961447,0.44316866281565187,3,0.375,0
2.698,1.8349380173740102,1.5567165478073322,2.1893473228992817,1.8268257599228945,2.7043264796577904,5.075730989480105,4.112423575076837,2.330974804216745,1.1024470889982176,0.8745790867883169,1.932160040619843,1.5242896637272825,2.1864074720720046,4.411851372439467,4.460402808241645,2.6506479088881747,7,0.875,1
2.758,2.899759888742862,2.309362667285551,2.9589275216853252,2.789969183692222,3.909665882579029,6.02106656985123,5.173327536930805,3.4177509971854483,3.720438123959928,2.580649892449849,3.5063730940977087,4.069770334264592,4.0684317849805955,5.536935462582361,6.473883118565381,5.267956228520474,8,1.0,1
2.818,3.657775668931658,2.9901543341522614,2.9761195636123836,3.532646793324044,5.353264687699509,8.19742962154219,5.769905791481167,4.589329150243139,5.457422286112032,4.023195914695083,3.5638801395672406,5.883177878469081,6.285043854649914,8.023408060388071,7.4472969390637465,7.795629705972158,8,1.0,1
2.878,3.6043426539793266,3.075884311119603,2.323029547669529,3.4378752161145805,5.540065666311011,8.677126354300961,5.742900654900924,4.836852500049753,5.255715931226914,4.171139156091059,2.245310427758169,5.549785632480571,6.5799631756568635,8.656333890916637,7.349468994802373,8.323868251655847,8,1.0,1
2.9379999999999997,2.401220146550594,2.111059854799184,1.4541686425326164,2.291154517522314,4.031856308421753,6.084278674569566,4.325191649012245,3.3029680273952025,2.0673348146166757,1.7065489490377261,0.4859600586312974,2.5440164479613325,4.093514875186003,5.183133634447871,4.780381972808953,4.172049158679168,7,0.875,1
2.998,0.8165046422719775,0.8162702376073886,0.7492770189398297,1.1165061584516571,2.3738936068133563,3.0762387855460886,2.5420407697482488,1.132341324133506,-1.0537474764680048,-0.6257874621312683,-0.6668200328514923,0.10274616550814393,1.651492463922808,1.7367678997089604,1.9605857864017773,-0.14741876734433051,3,0.375,0
3.058,0.3541587853612173,0.5689088953784004,0.6064045863946347,0.633532412344637,1.3230329657948772,1.447080541109394,1.5342484038105433,0.4012584751271796,-1.7567776156924062,-0.9987596623352756,-0.9005582716117662,-1.0973833138725968,-0.010007480754657664,-0.1977721352824476,0.3620270410948819,-1.2843953308184546,0,0.0,0
3.1180000000000003,0.6951935678902631,0.5451418938918726,0.6809856802237286,0.26500997789210273,0.5511882539015427,0.5536803036092016,1.290091375116505,0.5672348962707541,-1.0933280500723368,-1.055328642684198,-0.7687885736988233,-1.874934265781729,-1.1166510252180082,-1.1034110641177224,0.032747523188287594,-0.9507771903690881,0,0.0,0
3.178,0.8430536646237864,0.43849734871041346,0.7175049778199133,0.28606591904707285,0.3200534179517782,0.32815644660207427,1.392144313356625,0.7346869303011878,-0.6665874610950024,-1.274424941077975,-0.6938361505000787,-1.8140245741140657,-1.37987841384399,-1.341275213841077,0.2103598781111675,-0.537334104162623,0,0.0,0
3.238,0.6675087564285052,0.5572453586441909,0.7134955427671307,0.5022185752339389,0.46338875907015026,0.3414673731817267,1.1294234085752988,0.6820829106683636,-1.072985047738457,-1.061770651192309,-0.7019632957657717,-1.2927298327161736,-1.1573505413833047,-1.3312130516988454,-0.27327068771894425,-0.6720909007731034,0,0.0,0
3.298,0.4651608337451137,0.6666587338580409,0.8108283143416148,0.6043652091215517,0.5003624165628805,0.5263641903443657,0.7631206314530381,0.46288350984713167,-1.48446139722021,-0.795899429471857,-0.5195182814958054,-1.017364277457199,-1.0847975243402204,-1.1133517917712485,-0.8386891012721952,-1.1794692606007204,0,0.0,0
3.3579999999999997,0.5193964972676826,0.7848025495221662,0.7357687516735811,0.4795741740828519,0.5993492317053201,0.5983870505001382,0.7394111606978973,0.42353811001774655,-1.388510296015017,-0.5797972914757262,-0.6979920197695679,-1.36343621990481,-0.9610163476334311,-1.0075607394211117,-0.8668079727702462,-1.2590034678787763,0,0.0,0
3.418,0.7502651647163305,1.1370070196043751,0.48604950784620526,0.5042721824942278,0.9678128920324504,0.5672807582733157,0.6994476113089289,0.725686609919869,-0.885746357540731,0.1337489005618905,-1.1600424603648622,-1.3330731310269421,-0.41657502259889795,-1.044278349590663,-0.9471854775205385,-0.6261692614045161,0,0.0,0
3.4779999999999998,0.8886061898838838,1.1279330184890548,0.44080997728854826,0.9255312130399477,1.135425809678323,0.7307533568111928,0.606849848232105,0.8329600273100749,-0.5512187279795008,0.09922468050376816,-1.2217702220740085,-0.3588637371720576,-0.10805549908058591,-0.8718821020107774,-1.0897698501958244,-0.3234878794526364,0,0.0,0
3.5380000000000003,0.9766968539489713,0.727664321164605,0.49523633140554846,1.2311149485250352,0.9690221151522749,1.1986243918460053,0.7088629415421486,0.7242299909604819,-0.3626687235267268,-0.7316779022487876,-1.111705567320999,0.46268986377239996,-0.3791451371780788,-0.33554731614924477,-0.9201316392307896,-0.5595981159844515,0,0.0,0
3.598,0.99393339883149,0.6741564900291005,0.43421149131359854,1.1544839124132464,0.8921258536058844,1.5469773751314588,0.7027726125988044,0.6873154112719894,-0.3236061714331746,-0.8004141845137975,-1.2466382678085657,0.2569867841443971,-0.4884166121427642,0.13674566871335825,-0.9268642378686985,-0.635315101915548,0,0.0,0
3.6580000000000004,0.8091280047597257,0.669071482670998,0.2636679404103341,0.8225219548510776,1.0524131944899515,1.3712979879339169,0.8336802211800602,0.6026882455249704,-0.7628206221373102,-0.8155777977247123,-1.627736462318466,-0.537505009038523,-0.24115735840533073,-0.12016714334505667,-0.748720606500473,-0.854808817185269,0,0.0,0
3.718,0.6850675733132359,0.5387793367411109,0.38905682071274966,0.7286457491350253,1.0289034206579883,0.8145781873198807,1.0481138645990105,0.4270237854655594,-1.0167674536195845,-1.0717608075124094,-1.5059003000810562,-0.7326239972498853,-0.27978832810290477,-0.8235060103606008,-0.36577922916331645,-1.2354485913919024,0,0.0,0
3.778,1.0673925990813053,0.8941697332045122,1.1096469430572913,0.9213141054673898,0.9129096576684654,0.5864582233170896,0.9291900127602127,0.6116098490091574,-0.2778196227523973,-0.44497422620253824,-0.2154551756602089,-0.28009964516490915,-0.45131246171315165,-1.0404631895135867,-0.5825051200841663,-0.9084546004551428,0,0.0,0
3.838,1.3027206853017428,1.1829178779119063,1.4797704342822726,0.9097980592933782,0.9239804724517711,0.7833999570978866,0.822527503238325,0.8441183263353185,0.3288857162946822,0.26724336047380165,0.7357984938561399,-0.31101356903419686,-0.4346742649411424,-0.7950156708110567,-0.7385842010478862,-0.31623388980697004,0,0.0,0
3.8979999999999997,1.1097816418563937,1.107333993818365,1.4333530977183764,0.6468579455777604,0.7990773896930449,0.957791159580818,1.1368417556189807,0.765589470144315,-0.11709094464578083,0.11065218361180607,0.6570548578362506,-0.9552474218662913,-0.6465345933602288,-0.5755851562491908,-0.24345463622211608,-0.500034052142719,0,0.0,0
3.958,1.2581502671934506,1.441907700333133,1.6842585730026944,0.6218895174368134,0.8488074953196599,1.4869107676774407,1.6636577917380222,0.8143262234898155,0.1462015330335989,0.6726536409512284,1.085163762033633,-1.0047267634160637,-0.5951738002966699,-0.01583359300174832,0.6128642487694624,-0.4283891554759698,1,0.125,0
4.018000000000001,1.9220231930206069,2.294856221320827,2.1112405389702213,0.8577060407904029,1.2239899927145088,2.284092666123227,2.1337563138923685,1.4477058586067577,1.6031161607757298,2.484989254410839,1.9298583977753303,-0.43269509095634673,-0.007066190502282611,0.9756016566762922,1.4322102952235447,0.8623046569945739,4,0.5,1
4.077999999999999,2.9129176006697426,2.924056419517564,2.061314006835117,1.0544168551678643,1.3925847134531761,2.4580587840758095,2.109588327570507,2.552081400524779,3.6910453058723043,3.9193595060392368,1.8281784855652476,0.04747381146639403,0.28715700745142003,1.2411727889038466,1.3818563958942989,3.212033668174749,6,0.75,1
4.138,4.286351032880297,3.3784900516785887,1.7877740793563428,1.594283027737725,2.247225832545239,2.5078114000868825,1.5671306328452421,3.7567006154121785,6.664179054162879,4.86770927945885,1.321945786141639,1.176218242910882,1.3623044784622673,1.277805075561568,0.41605498310636785,5.968433871655435,7,0.875,1
4.198,5.204477038652133,3.6861142712516193,2.459697825416561,2.33635214050781,3.731084716554455,4.1617939204274,1.2549589423310858,4.415804423787498,8.826173840555354,5.5277851282435515,2.416596012867954,2.9963507614246296,3.715433977594412,3.0386957217499866,-0.07245706575887785,7.545718202441079,7,0.875,1
4.258,4.682832751285575,3.4691261048819833,3.5565780516724392,3.0654634817746675,5.388507392423981,7.435512821987338,3.489020962558235,4.269979331830043,7.550676655121507,5.049343217711989,4.590616204674688,4.747390386303336,6.289108192514678,6.87634845741005,2.742150995405082,7.215336265112554,8,1.0,1
4.318,3.320342533836241,2.9412746667871623,3.6656770031458183,3.5480128313910493,7.13802930886088,10.45086977375824,6.932901373511405,4.038763215295438,4.631447019344947,3.95634766651904,4.798657529078926,5.902337557183471,9.006403978930155,10.808509110384398,8.772922999982868,6.730241041208353,8,1.0,1
4.378,2.522068661005372,2.6387052603510726,2.4638228809571165,2.8139867892598414,6.585062647644129,9.92640075965629,7.979217774256249,3.8715484692939106,2.965612237868038,3.3391520172398272,2.1054213243964712,3.6175007203202427,7.943500202723712,10.083359569863084,11.034738981300466,6.345120356004887,8,1.0,1
4.438000000000001,3.1821305772212405,2.790472123755132,1.6978709722971437,2.4615580926393346,5.785500599332841,9.433307044147014,7.5469339332136345,4.1402833218384645,4.159363143198711,3.618827207644774,0.9275074149742562,2.7532747688719983,6.763454506377513,9.457485555244288,10.236789845509547,6.824969944276198,8,1.0,1
4.497999999999999,4.425462279313463,3.5068295155540468,3.068301423936299,4.726856722348369,8.02717606699208,12.151696941629499,10.477233291601483,5.602879616979701,7.023869719952277,5.067854472803291,3.416038203550695,8.007639133621245,10.193200826001931,12.797308485817139,14.667932914415083,9.923517867598001,8,1.0,1
4.558,4.1223769134386945,3.5294202816490845,3.600011577841027,5.287639782968777,7.765997886524422,10.99441499523259,11.066592411953007,5.553575443626771,6.267887171494498,5.134073055140999,4.7418681189711585,9.942060301999101,9.798051793014194,11.125687819944845,15.949264707012688,9.78976522261443,8,1.0,1
4.618,2.905659524218662,2.5772468722694466,2.791129659385673,3.764907104866796,4.894494545744253,6.655334803768094,7.739591436539427,3.6298468674676507,3.808923899739908,3.0556544340635328,3.037615940447813,6.0965203367186485,5.344564015650547,6.0886061922592605,10.319015424107773,5.452846853792234,8,1.0,1
4.678,2.19479441384995,1.6723363861856413,1.7102207218916112,2.134732659577577,2.6891584510807554,4.054539849066905,4.727715171752356,2.056796518139086,2.123223027229466,1.2051824019218746,1.0643037316789472,2.275421769259947,1.8665146795834093,2.8786546790351584,5.332274737355696,2.1481306009292624,8,1.0,1
4.7379999999999995,1.32454530837414,1.1460898780511508,1.2557492827539114,1.1264583986761005,1.3009612475068921,2.163334827354828,2.4592436495765257,1.1334153281308825,0.25638844744412953,0.18766585583098103,0.3253486711048959,0.14284090868306443,0.12903708558179808,0.8077734288119118,1.5430632127710642,0.18230408729382355,1,0.125,0
4.798,0.9564123951917892,0.8623085522781537,1.0489183985850123,0.7289453006569258,1.2046703356983075,1.347585963661252,1.1869489424020017,0.655510193348592,-0.4071792325375037,-0.41748644304136334,-0.11370633732867348,-0.7632722222856981,0.0009380817441334057,-0.18165815944445643,-0.14884050188296757,-0.7224186829372101,0,0.0,0
4.8580000000000005,1.108718467841558,0.8654797128046541,0.6468490101263161,0.833418730910573,1.1696665443143157,0.9913291300925233,1.1055364891008972,0.5497568519141623,-0.0887407013671127,-0.41347415296653617,-0.9043413861813775,-0.5683098275392763,-0.06667879669429135,-0.5334369652549407,-0.25745103295001365,-0.9388513335846606,0,0.0,0
4.918,0.9994687835446181,1.1094604380826314,0.4191355482699069,1.2058333107233916,0.8782260335141447,1.1022071498482935,0.981162071870255,0.6581245956037864,-0.4150412162477302,0.11555496909140701,-1.268598767168262,0.3741006111440985,-0.5770154730676347,-0.39609193672929743,-0.4840930062843459,-0.7337211569958079,0,0.0,0
4.978,0.5288984342388856,0.9962633905623678,0.5052237349125981,1.2049904341689288,0.533103471185044,0.9254840709262991,0.7258675822944012,1.0011886562139471,-1.4923936568781508,-0.17154587726828077,-1.106077221676935,0.38384877247362675,-1.0378488970553545,-0.6646055326105433,-0.8977278578555749,-0.010736686465316328,0,0.0,0
5.038,0.2475499602243641,0.6447873561711115,0.5687370747278961,0.8783767887536575,0.49180669026747953,0.5154594714429829,0.6336345782482969,1.2819378007152389,-1.959330534553632,-0.8607606582849048,-0.9716072329183595,-0.40975993458972826,-1.0960331950711952,-1.1500105674793268,-1.0356328211011754,0.6540685012320305,0,0.0,0
5.098,0.33927446036969056,0.5357576806755525,0.5471586323919864,0.7152427635570372,0.6142073067810412,0.3371597033054484,0.7555013383125865,1.1189582147133033,-1.7744393652106607,-1.063531737950795,-1.0139911416754588,-0.7527233588171464,-0.9244593114095084,-1.324316787711144,-0.8477241927508966,0.2068539188985965,0,0.0,0
5.1579999999999995,0.5121318109414521,0.5180231995460598,0.49317307917419906,0.9014454981422182,0.6608969604085396,0.39043275265431077,0.9399074442877053,0.6339889420282712,-1.396641118511378,-1.100856049223819,-1.1177844118869376,-0.3366006730922733,-0.8469765698932245,-1.2729919404375547,-0.5368478360015582,-0.8405183225101226,0,0.0,0
5.218,0.6073318722656412,0.5026145460419402,0.5435377380338753,0.9312462262953244,0.5159530204424512,0.8451618002511896,0.9954914157027601,0.39260658413831656,-1.1670308086790462,-1.133168390739941,-1.0333930159473332,-0.26149071272485075,-1.0796290099482537,-0.8126402040127583,-0.43545986857338326,-1.2894945811768734,0,0.0,0
5.2780000000000005,0.625738115575488,0.4614703451041123,0.7119535869187247,0.6977164814609649,0.5685231261578416,1.1919493015142875,0.9170886131574217,0.4193099798761004,-1.1246203981464558,-1.2238254949467369,-0.7144341414773011,-0.8255331078475088,-1.015536179564397,-0.30173721336103293,-0.5690725845192749,-1.2317132680081773,0,0.0,0
5.338,0.6195039265626224,0.4089148597498803,0.7728061832093709,0.5281661649048386,1.034876439112657,1.1280069994473148,0.938067804628302,0.5112940108855882,-1.138130697164981,-1.3323291645442403,-0.5861518773518674,-1.1897488650453518,-0.3427553009425972,-0.37692459868200956,-0.5481295341186456,-1.0271443443120802,0,0.0,0
5.398,0.7483875728540532,0.5080571169248438,0.7623838643949419,0.43687078009389096,1.2509866280049198,0.8745616892059176,1.2182432229001208,0.5757405838797763,-0.8943649668986859,-1.147467444108446,-0.6050260520807733,-1.4161563375798314,0.06006817969528679,-0.6815045394860832,-0.10455768292764743,-0.882039226319034,0,0.0,0
5.458,1.0568406347952526,0.7137527471837526,0.7886224367660314,0.33883961399987256,0.9764597425989671,0.6454688427708919,1.2326974614304431,0.567437445970171,-0.22559805850462075,-0.7135873514345709,-0.5558276848961453,-1.63932822190746,-0.42387806273903667,-0.9709921374639934,-0.0661026858092207,-0.9002158850963897,0,0.0,0
5.518000000000001,1.2663590889396208,0.8417574374739941,0.9313629378980893,0.3792683885791944,0.5655042996728195,0.7311164155119303,1.1485856892134934,0.6183995308944028,0.26919298692648574,-0.4284637277242435,-0.30296187220251036,-1.565569468012751,-1.0058072600033257,-0.9076900502841724,-0.19711300641791504,-0.8067818046884329,0,0.0,0
5.577999999999999,1.3389146140319754,0.7625704287626281,1.0619470731518712,0.8351275330621857,0.6267150744782566,1.6384800605450907,1.6103500558163766,0.971885403640301,0.4154085788132682,-0.6110893743819861,-0.040664206332138735,-0.6620377581972726,-0.9364361939363648,0.07242981694540102,0.5130552255292956,-0.09622319995260624,0,0.0,0
5.638,1.0293423748802408,0.5935433423944612,0.9529294077311167,1.2406008841178158,1.000452755736096,2.2685621664786364,2.031356449510827,1.1995905764881178,-0.5133790813670048,-0.9484098951226038,-0.2705566416054535,0.44400296338773426,-0.36368199503825904,0.9977280704915957,1.2675597485597583,0.48312547167154835,1,0.125,0
5.698,0.37067614773620733,0.5997848052181485,0.743265670366897,1.1351506884387799,1.1410443689860754,2.114609273368285,2.0479504474788026,1.1785114296609966,-1.883733166485522,-0.9352762163511118,-0.6623580303459987,0.16510911005914433,-0.10181469205165233,0.8029082834073141,1.3033185542960342,0.4409358441497953,1,0.125,0
5.758,0.5831103347817647,0.7801550685678761,1.0591487657435568,1.157745014093184,1.9117275761326842,2.5614397544507232,2.7459754416169426,1.2878705183835166,-1.5778632985326368,-0.58083440014636,-0.16408117819149617,0.16945405137297706,0.8318072450715985,1.2273154917347662,2.252314076366351,0.6619247052380303,3,0.375,0
5.818,1.4277138712405038,1.0963091453246139,1.3231360934475538,1.9640457458075622,3.1937311697498156,4.273169559216872,5.016337091282245,2.0368619529225382,0.325638279114044,0.06813469901215814,0.4402654677061634,2.014030898380716,2.907114265704059,3.2707357983885026,5.771417165404067,2.110978571415994,5,0.625,1
5.878,1.8539425079324574,1.2164678002363267,1.3204325460188062,2.2684419761020695,3.3328038853716575,5.02366107649704,7.307654978402663,3.2125282080129014,1.5475103299333874,0.3559956948314888,0.4390787936590061,2.914901012535019,3.222880266834766,4.354890949170958,9.865685304718639,4.720596074218319,6,0.75,1
5.938000000000001,1.9773613971421395,1.1409301596095935,1.653133714373869,2.0997577815639614,3.4092822323951273,4.649317707869494,8.161854087434302,3.637615007172568,1.8063864356911645,0.18733417279613274,1.0180562278121492,2.519656282182598,3.290502895729796,3.8827311265139213,11.436350856031014,5.8337615711044855,6,0.75,1
5.997999999999999,2.7124022707639868,1.8168109092193554,2.0958460925228177,2.357766567382136,4.315514825692779,6.607553950488575,9.356300491633025,4.186788920323026,3.2736158822480124,1.3659375608425661,1.9000662502418255,3.101621886467314,4.730924458954147,5.878756470222382,13.281078694280716,6.92399147804623,8,1.0,1
6.058,3.4505426847428122,2.487019637703062,2.0786559820476658,2.762660232233091,4.562735591165387,8.98242640550913,9.921389846430952,4.90710606090305,5.005314936128993,2.9836131022598598,1.868275853192818,4.077783364372794,5.150355945236183,9.097543278671395,14.301832117416234,8.616938239715342,8,1.0,1
6.118,4.719100583428039,3.1313209769604233,2.6502052764709334,3.816611841152931,6.335299725242553,10.871452004852241,8.838286839743192,6.149961687312054,7.561117282483324,4.280485790366719,2.757032524613237,6.3534431041968125,7.505631254039009,11.396014133854282,12.519529702301677,11.14112030144179,8,1.0,1
6.178,5.637135609057154,3.6795657987852204,3.602803179929877,4.33404868880578,7.70743510041277,11.813173634560567,8.19118069676548,7.213862680687959,9.774886149284226,5.482354484595348,4.697630390524746,7.783134729525421,9.969725625601946,12.604321728711938,11.495268205093994,13.672507843085542,8,1.0,1
6.2379999999999995,5.087971111103593,3.31261851653905,3.500819360926562,3.720572821879895,6.521065498349514,10.200225559581524,7.589557155589641,6.792143802099181,8.506093780962786,4.641413386966019,4.5118622633149,6.305218504129235,7.9676090177910135,10.463388992746674,10.465447643237033,12.721718697925198,8,1.0,1
6.298,3.8964871192935377,2.4527838343783044,2.6461263734658536,2.9741127336810806,4.182678384256848,6.928214930289317,6.7464697745514455,5.689704104530426,5.893664192524834,2.899889085744879,2.885792468216558,4.541371453066673,4.259663075082844,6.322097778798489,9.071717331561484,10.25507756734027,8,1.0,1
6.3580000000000005,2.560892652869132,1.8511245314787723,1.7814798186765057,2.124953335044137,2.2477669659198884,4.191512351301648,5.401292707989955,3.9841715493626824,2.5775280770972353,1.6191577843164238,1.1256986606709867,2.3632611655833395,1.3476492724684122,3.224714910365394,6.6094990216648855,5.894141162746241,8,1.0,1
6.418,1.0538023970593424,1.3088394534786214,0.9178015511463818,1.2355547973003176,1.0791877800088876,2.728698296100306,3.2596992375619713,1.7578194263168136,-0.5954709913870079,0.5034658093290236,-0.46269084285389567,0.3865366213471342,-0.3250827243434477,1.4374041810575842,2.907498063652284,1.1266511757168878,3,0.375,0
6.478,0.38155447210361626,0.9744620257056643,0.6571380483531349,0.8371419822878237,0.5401200194188664,1.5012425899516266,1.7142507046360045,0.6993379519012551,-1.6762311160688146,-0.15992523798836103,-0.8275095933389168,-0.47327525311169394,-1.0448386631116424,-0.0757807504804071,0.66067666288225,-0.6334159746751332,0,0.0,0
6.538,0.45889932571271724,0.7683780262168701,0.8219125669066499,0.641562951524174,0.4201676395734626,0.6774891535345148,1.9568830217848705,0.8547107582026059,-1.512840915117993,-0.5972461527170665,-0.5001631215768092,-0.9402093379094115,-1.2062197797073853,-0.9597495349530015,1.0352955620114939,-0.32404114100082887,0,0.0,0
6.598,0.58879551608051,0.553852190422415,0.8555894322504213,0.4548659645149191,0.39965960426183283,0.4807325811656977,2.118882678752609,1.0918633112587437,-1.2102739048313074,-1.0565647455895895,-0.4302976408933983,-1.3886871417990883,-1.2379266424354902,-1.1528936420852018,1.346861357201118,0.24474106045106706,1,0.125,0
6.6579999999999995,0.8330577250123233,0.4202445264560549,0.7438601312544951,0.437251627492081,0.3469496944613514,0.5449780705326642,1.4274845841780448,1.0636712235873973,-0.7294851209496559,-1.3144974174070112,-0.653075013679413,-1.4328388348462766,-1.3245888450839314,-1.073516359246646,0.1120356615784155,0.17770628113122247,0,0.0,0
6.718,1.273385810236106,0.4394841402665359,0.620889311051377,0.6672793773353266,0.2902041896013552,0.586365672094481,1.2501783755929232,0.8449106892539565,0.21493314065893995,-1.2724729948792055,-0.8751090108289091,-0.9061862983302257,-1.4123167716798823,-1.0212331812225908,-0.09319052083917041,-0.3149811905465992,0,0.0,0
6.7780000000000005,1.4877882887193619,0.4030975733460558,0.5127499574879195,0.6782093916024811,0.49926484292397355,0.7147317529543703,1.5657088459277262,0.6492810743165751,0.7427479350213507,-1.3571459712844403,-1.0961229373792787,-0.8796417030479361,-1.1565519224611764,-0.8772882826639904,0.49678982687947504,-0.7281155775671263,0,0.0,0
6.838,1.1858498807053417,0.43965473208125777,0.4314806626848398,0.4108003836293565,0.8819562079259795,0.8992296524189212,1.3599650731016686,0.5683236382489459,-0.028512475966586643,-1.3007665896719287,-1.2378783297105103,-1.5621282050942387,-0.5467265659706182,-0.6467559617711715,0.102105720351881,-0.902891420698667,0,0.0,0
6.898,0.6944613351211809,0.7272630837960135,0.4789085607410815,0.2820358930749273,1.1022731553686398,0.8400576625183868,0.804558683032245,0.7951154363278607,-1.0097855330591299,-0.7222073391569696,-1.1464962063071384,-1.7946741024606345,-0.15761328350502593,-0.7380296643602698,-0.895341319517322,-0.4750897003812016,0,0.0,0
6.958,0.4680060347315429,0.8967863447119446,0.5378850256021993,0.4576921903230467,0.9859531016373053,0.5374848473438073,0.340225209991085,1.0055319481481597,-1.5040103346517828,-0.3141232604336985,-1.0338696600827302,-1.3970149868744475,-0.36535894329207186,-1.1224330544203889,-1.5522626678555234,0.05297942785050638,0,0.0,0
7.018000000000001,0.36344053568113693,0.8063539539657971,0.6119997117986109,0.5165863922809919,0.7337858395273525,0.4485145588123934,0.35893969693852784,0.9326136912432047,-1.7018198602590762,-0.5178645117315307,-0.8954339929446432,-1.2294844258356954,-0.7421109597946999,-1.2065595068496666,-1.5226968527979539,-0.11192552748895135,0,0.0,0
7.077999999999999,0.4783111432037718,0.6697723762111413,0.5903388746375356,0.39794445891668223,0.9854639512139222,0.7291239170082787,0.6865856623417814,0.9664812020479734,-1.4699179996466458,-0.7870611766279897,-0.939928023314653,-1.5280330976466079,-0.4140487953408212,-0.8802953251296769,-1.0162070206158198,-0.06464926875091005,0,0.0,0
7.138,0.789132886100592,0.9488030506510036,0.5731607849228307,0.40861914202414895,1.216574342222434,0.8809398321606086,0.8315183394785784,1.4577582101854687,-0.8472468344929709,-0.3038177172438478,-0.9819365256105251,-1.5027385607395727,0.0026196712962181143,-0.6644308949066615,-0.7253562448138974,0.949018817958935,0,0.0,0
7.198,1.5597113163537895,1.7425170603390487,1.0522694419754306,0.6494208333460064,0.996466138462095,1.315350629343633,0.8527117125785716,2.1446971773213286,0.6788309152073899,1.2671846993500029,-0.20840492957538306,-0.9489551124556154,-0.3719196934857442,-0.24965067328482257,-0.7333267886557612,2.477959644696217,2,0.25,0
7.258,2.4339526479511133,2.5906280872852308,1.790591157041577,1.2150913618043584,1.641240824283652,3.8141155907843207,3.3739436772622353,3.0883975951412097,2.7054438782462182,3.1526847468648955,1.2211247689905773,0.22500904590854096,0.26178243829103126,2.2142554449734426,2.1878000411433907,4.474048928734796,6,0.75,1
7.318,3.2855435737382717,3.648693854630842,3.2576740378493594,3.076010479629085,4.4451352528159,7.912744898104428,9.216286612354889,5.0870680883162045,4.59715807877967,5.295912779336645,3.748036043816768,4.019895893580259,4.183876509250345,7.283278403120061,11.442173486628475,8.561142247645831,8,1.0,1
7.378,4.707524099966831,5.866123214161613,6.099014584523755,5.286407744539676,6.397831631417411,9.7350206275989,13.941022212551783,7.570700733259871,7.5378099366635,9.623398593434873,8.871548339011584,9.687234638940069,7.927671647409727,10.061770983795023,20.730903328206836,14.179344687800906,8,1.0,1
7.438000000000001,5.603475907835424,7.3533352192690895,8.05904498226925,6.11921941949454,6.478352059444318,8.651136004398243,14.739605458295852,8.947772307072242,9.67044249069463,13.098366539789227,13.09325037524733,12.021956719056647,8.114182610677572,8.709401903895573,22.240346858386005,17.41705331748712,8,1.0,1
7.497999999999999,4.720728183434833,6.02746937856491,6.949639821956035,5.17280301554714,6.256318611643194,8.294154417707798,11.385941560645726,7.385607846582691,7.494720315430559,9.701666934168921,10.573905240645768,9.606420832707432,7.787046758041922,8.320783661987678,16.00780420267456,13.270473544761588,8,1.0,1
7.558,3.3146279423679936,3.3247175883543303,4.103716687619863,3.728973835894493,5.94293158488658,7.98209364208068,7.323259663867699,4.592330083430955,4.71489822283397,4.532132110294294,5.432379561111478,6.272253040514555,7.251780453483822,7.878392767496325,9.88462052140902,7.815775133442995,8,1.0,1
7.618,2.9379633192299393,2.692002875028333,2.645199754640528,2.725076007141117,4.555660960025925,6.525288845479642,8.129735742365925,4.561589615418632,3.914349803116188,3.443922080139929,2.853418249998382,3.9041113893231434,4.986880700415187,6.1512225662901185,11.10094190296464,7.835738918955997,8,1.0,1
7.678,2.5819472768080627,2.385662734102142,1.6719875522504946,2.0245024044543545,3.441621947522744,6.5549260326521965,9.321733448623759,4.754593574586673,3.123727847233487,2.688111910710252,0.8113929158176907,2.3192305631195134,3.4376673113145952,6.2053740591159405,13.258273989751947,8.26250909284216,7,0.875,1
7.7379999999999995,2.0728293570345557,1.5206039370205169,0.7459358923586042,1.6843015054883295,2.8651323920559166,5.9302262454802745,7.119626327283897,3.610261430737749,1.9535278997529473,0.8309183880023602,-0.7117227848013706,1.5430532938456345,2.4497322421988135,5.236423978574963,8.77363519750409,5.216901745005045,6,0.75,1
7.798,1.3503160979482518,0.9295157751103997,0.6923181551348889,1.473917647638516,2.011418380904168,3.4717462460218593,3.210425988404571,1.7069216212142748,0.243292632278841,-0.2647842297033453,-0.7694285761940782,1.0444047250924582,1.182043651911256,2.0394506873722054,2.589178497098744,1.1637251932770403,4,0.5,1
7.8580000000000005,0.6989460461951236,0.9267746881824732,0.835913128734417,1.3094884779759177,1.788573664242018,1.4212813282094239,1.450734872738426,0.9623760328750899,-1.0168836271929254,-0.25871421659412325,-0.47157586013308905,0.659964339253501,0.8934616799531763,-0.15689821077985053,0.2894292442067767,-0.044027901676035354,0,0.0,0
7.918,0.5744638539586711,0.9576342328691813,0.7484544610614255,1.2084186928354723,1.5117051844057425,0.6475799682726748,1.0691932899422152,0.9787492188631728,-1.2377052385127116,-0.18968844016416053,-0.6520720655516431,0.4243085890911798,0.37018838524175607,-1.011486904984834,-0.36889944396042734,-0.0026845628123449337,0,0.0,0
7.978,0.5838540583968378,0.7908634673408412,0.5667868763549542,1.1068929110740313,0.9389750955683126,0.35277516889279864,0.7651440426562883,0.8553081316440502,-1.2189113903581865,-0.5460273571730238,-0.9839545436906104,0.17670173376513396,-0.44365957087173563,-1.3127365538096691,-0.8228194170957305,-0.2710006309944923,0,0.0,0
8.038,0.784962723784024,0.666295692843065,0.5142682742036447,0.8392019460985544,0.8853632231576479,0.3367346027869389,0.7754610786497105,0.6785483826229932,-0.837118162798019,-0.7913842431967789,-1.0768231476081562,-0.5608959912297098,-0.49832432404853005,-1.3274205223562638,-0.8024430686328725,-0.705510549151635,0,0.0,0
8.097999999999999,0.8803593831653013,0.57317897929823,0.5556831016182776,0.42946443640775417,0.8967953849056579,0.3101164413331074,0.6936247679718534,0.40867556759579887,-0.6007511285570202,-0.998066664150841,-0.9994990695521476,-1.5540708136492232,-0.4757044721607698,-1.3618568358465382,-0.9664541918531161,-1.32540589633176,0,0.0,0
8.158,0.6271027074649242,0.5086743757873358,0.5213794509890327,0.3336152608497995,0.7706667901729045,0.28581771883402635,0.5180605457611477,0.3878462264169932,-1.222790758118616,-1.1238152267307333,-1.0719119211731665,-1.709312198371727,-0.6706094889776799,-1.3872479551932873,-1.2413889845518644,-1.3517087121657303,0,0.0,0
8.218,0.3983977207202571,0.5304662989282606,0.4010781718982927,0.49493321046024796,0.6646446067172699,0.310060536965607,0.6091952453323699,0.5499142609698316,-1.6249754650078485,-1.0767707741044723,-1.2979461591612258,-1.2872746030559183,-0.8341980544124378,-1.3568991340782954,-1.0970231155742036,-0.9534601273297337,0,0.0,0
8.278,0.44653310971113225,0.5793707327963534,0.3538766474877438,0.4780242602834137,0.7372480841241479,0.292720235711775,0.6582572416175314,0.571829546104436,-1.5185010334846634,-0.982158494930658,-1.37910980042406,-1.3281736168111908,-0.7344674936572729,-1.3789413665213341,-1.0001393166745796,-0.8908258222801573,0,0.0,0
8.338000000000001,0.47657368251626575,0.7676368854824732,0.3350641025261892,0.3812764048584728,0.9446622453460001,0.29059303993944663,0.5108712205218362,0.6418929986275812,-1.4516422621634923,-0.6097323179209998,-1.416987998622919,-1.5439584581179373,-0.40773022359586397,-1.3811005404617005,-1.2615776198701822,-0.760705255309602,0,0.0,0
8.398,0.5538034503120888,0.8291272973826614,0.37767341761390477,0.4567837259751335,0.9494623757067839,0.32700326730760804,0.3446849502424352,0.9687005492063328,-1.292752732201449,-0.4611736949939293,-1.3488178423145236,-1.3747774914086535,-0.4010657857397499,-1.3374474442617617,-1.5241494035459027,-0.08349724814311632,0,0.0,0
8.458,0.6209528848815669,0.7034496697306113,0.5114106625180251,0.6032408448224634,0.685208573703141,0.43045651079535835,0.346424347054624,1.0638463809364225,-1.1356478356998216,-0.7245314598025514,-1.0931401029282541,-1.0222608057778926,-0.8548706884960714,-1.221271107405437,-1.5216749227116881,0.16571646899423098,0,0.0,0
8.518,0.6824581869992841,0.6219323744636677,0.6212276162292764,0.7138831991705307,0.4032857377244138,0.5410800662788761,0.4495880614077048,0.8013798608083038,-1.0070133964075465,-0.885411780639885,-0.8758127940931257,-0.7534488364500992,-1.2481523116655138,-1.078707213457258,-1.3470138976959634,-0.44257841695698513,0,0.0,0
8.578,0.6630449353250032,0.5747102168157391,0.636765988875441,0.6355565512035288,0.5055169485541126,0.4878758062164942,0.5182965230839369,0.5176382951985533,-1.0543298836378512,-0.9850859312332833,-0.8447257505886848,-0.9730233145854337,-1.1158948203872225,-1.156680749146344,-1.2279867842602483,-1.034657557327575,0,0.0,0
8.638,0.6622050757387837,0.6361718975589313,0.6054954512319141,0.4066895282242446,0.7956619577421336,0.3600529143548462,0.6263138389618537,0.38092942073456404,-1.0657245209734487,-0.8720250213207961,-0.9028987072515445,-1.5083916361097363,-0.658220281444185,-1.3014607161218366,-1.0589316392043575,-1.3174253349496758,0,0.0,0
8.698,0.833972219632085,0.8560342817030524,0.6022469183158258,0.3281786217975928,0.9948292144949119,0.3916070367667684,0.859990604447753,0.48103359973014703,-0.6922696714546573,-0.4195290708972588,-0.9101470240805392,-1.66849651099962,-0.32416161904194013,-1.262449942040774,-0.6843462848175242,-1.1357135105790075,0,0.0,0
8.758,0.8007829344445231,0.9089265924979841,0.5138625227039977,0.48940757817758196,1.1566848219718704,0.5340089467986503,0.9411176338301226,0.88966596936318,-0.7714559786657441,-0.2886430140562381,-1.0959208823539648,-1.3232744667192475,-0.07787302177162728,-1.1030973883094226,-0.5357951576162922,-0.30375467368157055,0,0.0,0
8.818,0.5443207680371346,0.7219923121877981,0.4566972989849932,0.5868938112744815,1.2623200813336783,1.101094397107026,0.7330030229063059,1.2630630094655202,-1.3442046547416913,-0.7065574229586149,-1.1925042541612336,-1.0601272137574098,0.09177965748136091,-0.5141137860312126,-0.9131530359640047,0.6013917442701457,0,0.0,0
8.878,0.40191909192934583,0.567511209949582,0.6364237245913452,0.4427566630147522,1.1682795303695483,1.8550199149139603,0.5569768520774669,1.2837659053050314,-1.6196169487441576,-1.0205026784734808,-0.8736601486865091,-1.4882308815104779,-0.06231996579698629,0.4529957143771958,-1.1683366638194645,0.6610360441236636,0,0.0,0
8.937999999999999,0.4964416640622192,0.9540705558387899,0.8880671928646955,0.2924935342497232,1.0068689029423254,2.22458575858533,0.7477353106157565,1.0427296553745249,-1.4257078104903174,-0.3491200834931223,-0.39029065558028525,-1.7968032246330623,-0.30601558894861014,0.959360649030432,-0.8791252661260307,0.12529825847572057,0,0.0,0
8.998000000000001,0.6968679300089101,1.3596592924706392,1.0800841198106126,0.9310245572154511,1.3397792871388463,1.8611283171948105,1.0208998918392822,0.9832666143225979,-1.0032043480450608,0.6357936504593527,-0.010295451434612237,-0.6234751636731444,0.12594539701732807,0.45393842093046705,-0.41908499700540086,-0.0046530033012285215,0,0.0,0
9.058,1.2395490793549995,1.543331134278901,1.3378931362619042,1.6261001489070046,1.7549350658245995,1.5188064912156516,1.7320994190535957,1.461249686570342,0.055993955762374314,1.0446534191565864,0.45881127255742865,1.2759374950744373,0.8211184124657213,0.09780377126119737,0.6308186796233103,0.9444238523569984,1,0.125,0
9.118,1.7207512886903644,1.5560648858486956,1.4619945287487446,1.7228194797114083,1.5207026641290962,1.6942569530101284,2.252872750673193,1.6975029728797473,1.234594147704178,1.0717178236689235,0.7173623720203034,1.6123416513931235,0.3932803747280658,0.3213184911245099,1.6321083603355662,1.5681977303785886,4,0.5,1
9.178,1.8090809162518495,1.7134300728467913,1.580686847644896,1.9340512662809162,1.4407109014410449,2.5050534101315516,2.701181013106244,1.8381086381302387,1.4579960974404882,1.3738742175627119,0.92063310554882,2.0100208653886944,0.2532595260335184,1.1583731455536685,2.3473933995796807,1.8352483495902172,6,0.75,1
9.238,1.8396356689869704,1.8495242602750726,2.0289341987721197,2.945790883959552,2.8286106520343237,4.259093407988742,3.221920944905856,2.5785928244395913,1.515812979126837,1.6782969748276908,1.7441219126114766,4.3489446699652206,2.1829085313177043,3.234086923743844,3.2378166099574557,3.3842318697921443,8,1.0,1
9.298,2.0312841934566253,1.722727684409077,2.5737950176512063,3.5585658797529933,4.756745522688645,6.490562550472188,2.995189366025517,3.1545161678498257,1.929902269475271,1.4156386766850098,2.794098936959283,5.986498721724853,5.245833495762925,5.9753848302370365,2.800185717955769,4.774710394283463,8,1.0,1
9.358,1.9711923603558767,1.9158758980472805,2.7744832085831597,3.4938427520416266,5.943845520256707,8.026719804196107,2.176351148480531,2.9920419097436435,1.7904549805894103,1.7783738438137522,3.197734611406128,5.831210792424205,7.270499192466244,7.973666195460678,1.445182065743276,4.383078045251646,8,1.0,1
9.418,3.0521059732929987,2.842531920283062,2.5771984418913196,3.2015723571146,5.342457574026592,7.182689445451662,2.2230371087017597,3.0614403010026985,3.596905425194128,3.5773986824779964,2.8157903763763095,5.1360837013564336,6.209912536514442,6.767299382859576,1.5037856334712583,4.438607345919174,8,1.0,1
9.478,5.380705270143669,4.039747412677386,3.0619807914355084,3.400073656689005,3.7621463641283213,4.7464587274703725,3.9685047950808254,4.80736950167278,8.749684267605973,6.148664205711942,3.6267934383699583,5.570838920777422,3.831527611796176,3.8507247154194797,4.1107752993407045,7.962462886152815,8,1.0,1
9.538,5.474204782750931,3.987379585495059,3.5446328364937716,3.5905684727868112,3.307333253265375,4.002842489349058,5.4578637373103485,5.274831932506617,9.029477587807902,6.005464407989589,4.637508723898342,6.043410330157708,3.230285773938004,3.1010718757737172,6.880639786543188,9.236724234761288,8,1.0,1
9.597999999999999,3.346950958185803,3.0745863434112723,3.225297471141032,3.504015928866072,4.90053318639697,6.831303464965961,5.6691311725725155,3.7263666740967505,4.351674908522647,4.184749713056275,4.024992330224893,5.833100489436789,5.37771324603889,6.034878464417074,7.303968930711353,5.6400097196289645,8,1.0,1
9.658,2.2932664051433433,2.9015151080846477,2.878920746181113,3.6920482587116865,6.55661696648498,9.19749456672112,4.838700378609179,2.5628628833186777,2.5086006366936755,3.863093668310111,3.4007894596452872,6.267712703643074,8.120067115160964,9.260732294726484,5.823052184383502,3.482244551660934,8,1.0,1
9.718,2.1160544655661635,2.550600032851518,2.5983174338506236,3.2036268462418955,5.827878268427795,7.557963389340521,3.5119165462515873,2.509787070175797,2.0911962090201612,3.0665448869534764,2.844939265040669,4.9214047298158645,6.78796843908007,6.737169353428087,3.561936296889297,3.367830940295397,8,1.0,1
9.778,1.7770846143947279,2.1424037067630586,2.107259658434236,1.9814681361054374,3.4753613653867164,3.931749871766813,2.423791251234092,2.4084886252483093,1.3859409584490716,2.2977583616451587,1.910936622350296,2.054135937137888,3.2967130217480562,2.9297255992374898,1.8902840980080315,3.139957307183385,8,1.0,1
9.838000000000001,1.7206650312522391,2.335873256399893,1.7145690518855838,1.3350942630348412,2.5306631499346004,4.027905709220638,1.90586292623549,2.228048220694872,1.2668654336226373,2.695870215547562,1.1824833586125731,0.7071781311634017,2.0322201366515835,3.094361744106855,1.043178426956742,2.742254842728885,6,0.75,1
9.898,1.5983673134240186,2.2267608848622586,1.3232636585902071,1.1708256738639202,2.6347252701720603,4.678228982767865,1.772128873310524,2.218033244979387,0.9759131657585262,2.429983122931135,0.3889597635518032,0.3212130183953877,2.200032739724618,3.9428297592448303,0.8475059134616574,2.724507068295552,5,0.625,1
9.958,1.2625716759485581,1.5332557411504455,0.986290715289968,1.0513593103297043,2.5341396326022814,4.3328442025569505,1.96953268024649,2.3147431917538066,0.2194649842091769,0.7890592931597352,-0.19682433115166298,0.04670777448206472,2.0330854056548073,3.497044878999873,1.1740265363170774,2.9378210942048217,4,0.5,1
10.018,0.9973052488345162,0.7192523149498197,0.9423381907065531,1.0079859877085253,2.0166558483126567,3.497528641916045,1.9172318492245026,1.9371981620101817,-0.3198159254291512,-0.8686954107135268,-0.27185027750882407,-0.055844696300579345,1.2075410187417284,2.484843812598576,1.0733544357157314,1.9517754831434957,3,0.375,0
10.078,0.9818716138099155,0.39961426874560263,0.7858912752570789,0.8977359656408122,1.5713605127187,2.6114276464917014,1.4430703098542974,1.0724645278564906,-0.35027190501305605,-1.3613324213299112,-0.6019245669680161,-0.3254628417235217,0.5597085079124666,1.3387727053178244,0.2189550257753519,-0.15189543707866238,1,0.125,0
10.138,0.8297147740368577,0.622923989411036,0.5235975018269126,0.8530231848817568,1.3191730346064425,1.5630986143786585,0.9314165060579155,0.340987088557106,-0.7692993581666224,-0.9349115594129515,-1.0747579941349596,-0.4196521037148311,0.16332999088128627,0.01748076219805933,-0.5663685563836518,-1.5108862993240335,0,0.0,0
10.198,0.44137295029019097,0.7308591360308468,0.4300178953795874,0.865081452619972,0.9809199941224407,1.062258413841104,0.6701076126310399,0.39677608155234656,-1.6376538593016836,-0.6762664439694023,-1.2351838060877987,-0.3933189902124745,-0.3838891979973466,-0.45884476034677624,-1.0049555834757777,-1.3949907265520787,0,0.0,0
10.258,0.22621040134783968,0.5390639586813237,0.4094540790721162,0.6902492023427437,0.6204961736397779,1.1193249038819855,0.42702319678616346,0.679365683192213,-2.000111002330464,-1.1535773204757507,-1.2757913795218676,-0.8597226092733012,-0.9429086804909281,-0.3883803881600761,-1.4092928097451425,-0.7044782791570173,0,0.0,0
10.318,0.40800470070545397,0.2930953990308322,0.32834037023485285,0.43430137835493243,0.3687483246475027,0.8350366419469542,0.3491936960166445,0.697347298474587,-1.6808885921292165,-1.5764654304770955,-1.4438616847993548,-1.4417452177342038,-1.2999906270316488,-0.7810231509560555,-1.517902793920906,-0.6349059628497397,0,0.0,0
10.378,0.6969485538014356,0.2530387446893102,0.2058356688287649,0.4375642704988376,0.2823416054832851,0.5628123167968149,0.5721714722064293,0.5873348534558783,-1.0226475394332515,-1.6616046677051843,-1.6795195398469485,-1.4271031297784298,-1.4217955097959756,-1.0577376086986172,-1.1840571867116496,-0.8576421053111872,0,0.0,0
10.437999999999999,0.93145560618333,0.2749585485222488,0.15453396418367374,0.5161829909099138,0.47421883541793525,1.0585413654143303,0.8018831812071943,0.7211231742543293,-0.4696798521358714,-1.6319863602698845,-1.7674312657532283,-1.2170807012507228,-1.1835282107242437,-0.5740690972793888,-0.768522209827649,-0.5844159051721912,0,0.0,0
10.498000000000001,0.9797460643809378,0.45292859583685313,0.39398837155609684,0.602412907857106,0.8334610221946888,2.1710632995614105,1.119988773497816,0.8304895050885976,-0.3638025358351759,-1.2818777731852238,-1.4099668666239602,-1.0339843334766228,-0.621169094643713,0.7324388921672687,-0.275440603082729,-0.32275059135878087,0,0.0,0
10.558,0.8911400979644541,0.8187634561491753,0.7506199164308943,0.978381093548158,1.5896010683011301,3.036248491905321,1.9668683869583998,1.0050596799793476,-0.5751810891109849,-0.5725327300837088,-0.6971595248429449,-0.2370491346279794,0.4135368495382635,1.9143674901716523,0.9773583293848995,-0.017475096935800332,1,0.125,0
10.618,1.9501348560197744,1.782526795855229,1.4779123894806931,1.9075391602007006,3.7875152431602426,6.349604272783195,4.601945683977578,2.8002223475647186,1.149826680191966,1.221682124492527,0.5429210314847965,1.780644549028172,3.385871542646194,5.154236057875007,4.747843472822011,3.078516561360882,7,0.875,1
10.678,3.672169446432827,2.755806583279033,2.544072381627085,3.010859693009595,6.283359009264205,11.08614684538053,7.989528537977394,4.8557623722854135,5.134837858022499,3.4775800976180524,2.583297528386556,4.528600693645956,7.5689710325208495,11.230150641230464,10.680345445238544,8.154376696210617,8,1.0,1
10.738,4.085714943073365,3.172371135794146,3.389939164559555,3.9111317982680474,7.857190929077039,12.646933876292525,8.769124509345973,4.968250675127193,6.373476522063893,4.449561815497163,4.336337371210937,6.773262073866332,10.232826476215088,13.615670675505223,12.367582048025056,8.579798543222298,8,1.0,1
10.798,3.9119331250923066,3.9961106384805136,4.1193103079382976,4.309557849828643,8.246772241381015,11.88540634105327,8.391289094724726,4.099207401038621,5.973447395089095,6.012949820253456,5.703957359073641,7.763819350885723,10.857736642599619,12.691091662637056,11.674719850469325,6.740826165000544,8,1.0,1
10.858,6.105613453520469,5.428878774378457,5.042761811893149,4.399806644485848,8.70936297404133,13.78985773966307,12.481800812733818,6.632451250283201,10.201125065433391,9.057628036475514,7.440272010168312,7.983433410143184,11.549112078675252,14.849431193508552,17.765906388584753,11.483419568899693,8,1.0,1
10.918,7.166482129927785,5.669544084923814,5.56120384614763,4.270682619699064,8.769756200464741,13.918592639570646,13.68546601505713,8.021114713104469,12.957093720654264,9.583173211880643,8.44603948281446,7.63897655494909,11.628272787225962,15.001373012955886,20.24444738628105,15.288518190837332,8,1.0,1
10.978,5.2379161322756245,4.007899761634632,4.493091298002196,3.2444719039313297,7.12704189672362,10.434028829027799,9.993317127699939,6.2457530197396025,8.025413943680354,5.459608209941565,6.009254558022175,4.792214819617359,8.9040065672436,10.695221108293525,13.950865675214418,11.022500063377635,8,1.0,1
11.038,2.5121627349716182,1.768173742366585,2.5462894805575504,1.8049863757193592,4.815975418864314,6.899525525959056,7.182580701145468,3.6841218105202826,2.728952088695129,1.199459957851553,2.616552947004959,1.702143356050845,5.357273217230552,6.21471478639182,9.755268206185894,5.599903120985259,8,1.0,1
11.097999999999999,1.533426958761518,1.111992378934057,1.773879863349946,1.2890430713424947,3.138462850393635,3.652652358774565,5.426485537291327,2.1931732745871497,0.7862501954214883,0.13359340409876957,1.2719877653716747,0.5736511777052374,2.8552062192784633,2.1875857550052946,6.492812636810956,2.503083555416987,5,0.625,1
11.158,1.1122848461825627,1.399056215943528,1.3480487382211348,1.019664311085993,2.376828179327992,2.030066517476412,3.1497491434578464,1.4301608891101276,-0.08241165251155404,0.6976797754333969,0.46511194310687115,-0.05984246459806985,1.8034784061661455,0.7182304587093218,2.9547265305037462,0.9332165492203751,2,0.25,0
11.218,0.8955501129422783,1.675793667066155,1.0117041424857733,1.1817093707041497,1.9209192103074904,1.9634803548796118,1.93372190876246,0.9600613755993317,-0.5494065228440282,1.3205913184927727,-0.1541734118836109,0.29223200173929004,0.9938851434546955,0.6259185857892591,0.9630113888062942,-0.11313736499827239,2,0.25,0
11.278,0.7487200440945155,1.6678339670982267,1.018362933262602,1.1900424559745293,1.0898631630283626,1.4602473108563714,1.2145980331776272,0.5685216888300365,-0.8593981117530961,1.2939921002565409,-0.14363259134912104,0.28393969328943686,-0.33667711720698307,0.0065046180650597625,-0.09416067710912228,-0.9715286947709075,1,0.125,0
11.338000000000001,0.7109985620833321,1.2843315689419406,1.2429237673280649,0.6922341256188832,0.49081005726270016,0.9755548083951225,1.10193302289942,0.3302466436118226,-0.9397289219947855,0.37381349320898777,0.2956988989502291,-1.0437293752214007,-1.1338149475972819,-0.6005893346722255,-0.26121361332793497,-1.429859763631187,0,0.0,0
11.398,0.5914557188063526,0.7141145394820381,1.3331756739840905,0.331746368847957,0.3262969931470039,0.5386167290403941,0.927475335121668,0.3152052630553497,-1.2474687254050139,-0.762668523724455,0.4739161395312044,-1.6962558977744402,-1.3557878678877164,-1.1316547100509704,-0.5923898923386387,-1.4591751301932192,0,0.0,0
11.458,0.4245656279053059,0.4463647247679218,1.1694245985351726,0.6708749834248894,0.4268682421403511,0.3053805439528276,0.5808038342593872,0.6498251457667406,-1.580135249004024,-1.2732916118482112,0.12995036688258577,-0.9965719542247262,-1.2227952928240318,-1.3718234805283405,-1.163477595729795,-0.8761784766334144,0,0.0,0
11.518,0.6817059911136851,0.5937830633058789,0.8387228758251567,0.8288408307805073,0.6542332110635127,0.5131044136908077,0.5345127860739864,1.3592751300007309,-1.10538560764464,-1.0156029177800077,-0.4904573767169014,-0.4914308935790625,-0.8693521676587385,-1.1641934285771975,-1.226554742832511,0.6322612391333312,0,0.0,0
11.578,1.0739928729011876,0.6843651625683769,0.7236733686508359,0.7288918430710408,0.9372971952611198,0.8135510884319512,0.6703774532490162,1.6917184511110799,-0.19929542943325665,-0.7851095640581448,-0.6807632319662856,-0.7216548161093161,-0.4351444422588105,-0.7663603460470011,-0.9830204537795133,1.5485202995454566,1,0.125,0
11.638,1.5204851575703189,0.4634906695528956,0.7308381191688261,0.6342922973630101,1.100997575483653,1.091894377839902,0.7803888500224818,1.3457175179501686,0.7747110519392377,-1.3228494100557195,-0.6687280629711293,-0.9385109396251275,-0.15874053756104364,-0.4199425955017128,-0.8018828568551939,0.6705183096248936,0,0.0,0
11.698,1.671200008920427,0.252643327626465,0.6152545178838796,0.5558468768588097,0.9559762159062086,1.1408028671627068,0.9494221954172659,0.811395901734971,1.147926799565163,-1.671120717175076,-0.898666327612008,-1.1259781642773423,-0.41671480430197855,-0.35597932145856775,-0.5236157993419126,-0.40431011111987686,1,0.125,0
11.758,1.6476191159519646,0.5648878619710682,0.6262648922670371,0.45185755604092354,0.6232354050174898,0.9537026708232761,0.9994323152312974,0.8518463130800761,1.095491878295817,-1.1461314795764537,-0.884773015749405,-1.3821068498587177,-0.9338938552701551,-0.5846099354947895,-0.4300817860650222,-0.3235744200730524,1,0.125,0
11.818,1.7115588835338404,0.86660493402752,0.8745455265567607,0.3420075015325473,0.5145920999706883,0.9275815268086565,0.8924512056970628,1.0923546359494598,1.2251386785440097,-0.40904372842279063,-0.42272304140568223,-1.634274485914515,-1.0690613735847045,-0.6142127625880204,-0.6109200061878647,0.22466741115802988,1,0.125,0
11.878,1.3674901822307732,0.8648965018548167,0.9301354115473525,0.41567674686422473,0.766041056058632,1.2969842894122041,0.8181618477878853,0.9713658864834108,0.32509654772694657,-0.3912608288262638,-0.30007541290740475,-1.493203905285663,-0.7130141603191237,-0.19743926892234376,-0.7296160078232364,-0.0844109888953715,0,0.0,0
11.937999999999999,0.8265320261134347,0.8084539199262695,0.7356244662497269,0.5502280868100201,1.1330007871480017,1.5598928751870909,0.7481084852575025,0.887117937920406,-0.7091839073504745,-0.4988816539482206,-0.6802629743932135,-1.150439412689751,-0.14224340648685485,0.1608926941666577,-0.8528053934665758,-0.24098649764385335,0,0.0,0
11.998000000000001,0.847293449202605,0.7890164056661833,0.5289690400953371,0.5270843011492466,1.2811220258579206,1.612375028754887,0.6133801828922633,1.0303128265135422,-0.6520625424104599,-0.5538054523472902,-1.0678079735763537,-1.2025313356670222,0.11971604811592997,0.22462600073450908,-1.077214267941154,0.10193414220623809,0,0.0,0
12.058,0.9629044467341795,0.6691216002274697,0.49208213090927416,0.73838930569597,1.4068327999093282,2.10079157888204,0.7841690299002192,0.9171682154015578,-0.39157264624701477,-0.8125456302796222,-1.1666141276870698,-0.8279428768580736,0.2913634877195351,0.7519724021451616,-0.862823512117049,-0.15557291205186682,0,0.0,0
12.118,1.4176840706864378,1.244840273999056,1.4151821050241509,1.481959189841655,2.0629544871593746,3.1134887694407865,1.7165364586271545,1.1665011509069245,0.4637647553823168,0.1378160743256834,0.1906394779931594,0.841594449541251,1.2236867303201593,1.9636675247327517,0.5091752766060628,0.2835875515591957,2,0.25,0
12.178,1.9411790557207382,1.9918828386140608,2.3132114385466407,1.840939810226946,3.026932622281171,4.059564125544872,2.293751845932072,1.8218556148977898,1.6941117677037154,1.8893653407317084,2.2190074151070363,1.9042328081811368,2.7186922907610174,3.1668780236796983,1.6820443000304295,1.7534854725015958,8,1.0,1
12.238,2.0579349279440513,2.2352167344032075,2.4391889895489656,2.084012220530829,4.399436890850978,5.216930321468296,1.9765510508491544,2.370355985517889,1.9946070916510024,2.4932229913782424,2.550726438714719,2.412900688846331,4.774359639339807,4.527870876011515,1.089594568057136,3.034510171636857,8,1.0,1
12.298,2.3240841438438724,2.0812157812224887,2.5266552211821747,3.0048239684086666,5.485674292175477,6.303735659290267,1.3467320971481134,2.743708882713347,2.5281579612617295,2.1520655652101515,2.641653698308305,4.473021562928884,6.570318490120312,5.899203988446584,0.10315179202555909,3.8693699635895342,7,0.875,1
12.358,3.334886852248692,3.4850268643402953,4.8107841991814775,4.699293858424823,6.084956008053613,6.056543819511563,2.7948027123540893,3.2500771159680775,4.584770656318528,4.476486490314106,6.335113065404645,8.348701069748245,7.501392691497877,5.5776524717293725,1.8324780722970668,4.937634816963553,8,1.0,1
12.418,5.196066672955464,5.624322691585747,6.954933111683392,6.565716129288884,7.876919219420548,6.175997336537978,6.415824026085913,4.800607229601652,8.50252617212538,9.280214193566012,10.972100067651724,12.912479162755867,10.053414384281558,5.660957724116375,7.651253169572971,8.057653642911665,8,1.0,1
12.478,6.332018403798102,6.0881759738259325,6.8706751801018315,6.844862763062119,9.705799270691017,8.71870461017284,9.270264695548075,6.137712804986052,11.309501846997053,10.515804212622204,10.850689679264717,13.69744987574075,13.060377801580673,8.614067144255424,13.138415423808839,11.243186504267863,8,1.0,1
12.538,5.562144979854768,4.9067205164431265,5.212119272967586,5.693279442151224,10.10815333719429,10.717753701861454,9.797336656355288,5.117958885241825,9.408790125010453,7.947320999155799,7.65029388306109,10.95700453221788,13.731339636305334,11.26927246549698,14.141177799849592,8.347669265003686,8,1.0,1
12.597999999999999,3.64218491578427,3.411742885345647,3.6263554527700896,4.51430969514346,9.061073177899651,11.344245822064241,8.642161441207294,2.723851039485745,5.055960986796587,4.681408862544539,4.627947127897184,8.055593545617283,11.944296093385224,12.043244556939657,12.17511983615091,3.566486107568732,8,1.0,1
12.658,2.1254063915579993,2.0020316696585274,2.3136147072433766,2.9282053082269823,6.262024226065915,9.73215202844645,7.403834130714281,2.5436795436105784,2.009355309306484,1.7262098055542745,2.132026096000575,3.758203109510939,7.0495095848800595,9.776495047996175,10.160661819416156,3.35543248991614,8,1.0,1
12.718,2.255788102115863,1.849390483822666,2.071396404616993,1.9098588048328153,3.2097689762619313,6.342283795009492,6.687006791780563,3.5325785762900446,2.2687412318273545,1.5060191784946804,1.7709012023989865,1.8820422696762957,2.940048467164082,5.7170066873395164,8.988042121117413,5.486004369661109,8,1.0,1
12.778,2.7455622482021176,2.3258262671418835,2.3943739898816077,2.525544255084071,2.742931780387985,5.0541442417902935,6.2987265660235545,4.132093153703038,3.4568749819233933,2.6319340014054835,2.429659519031863,3.417129810237833,2.350335427210812,4.3976880059962475,8.331113313164423,6.897591666195883,8,1.0,1
12.838000000000001,2.350991957279506,1.8830794989455846,1.8078179814972462,2.216072553751498,2.2633679568088856,4.373776813531117,4.916156012910787,3.571415027850165,2.512117887358434,1.5092114987268508,1.0575401869407342,2.5208799022080823,1.3890271214469594,3.3800246496926625,5.550839641904871,5.512453251471654,8,1.0,1
12.898,1.5355096925466334,0.9355896995671528,0.7477515374895003,1.181123220853258,1.1828324652653714,2.621073992011525,2.443736823308011,2.268967566268503,0.7511337536159558,-0.41059807331655945,-0.8551320025840913,0.2053570699669183,-0.09868079972076299,1.3047586083120495,1.5878571954351166,2.569424995182388,3,0.375,0
12.958,0.934743727733582,0.5030008159803401,0.23053524792087204,0.8045161202353065,0.8912947011374822,1.6609471752663434,1.1253193417022096,1.162072396085739,-0.5603708356183409,-1.1396290513289726,-1.7179716777517087,-0.534284166433604,-0.4880292743511578,0.2567845039733194,-0.32141257255940126,0.041565762790506555,0,0.0,0
13.018,0.5035682993514129,0.5121313101852133,0.3092085811646996,0.7203872000584235,0.7471213858318749,1.2794245523773526,0.6998071943500107,0.47373333614241936,-1.459176446472125,-1.1156327001336728,-1.632652318719752,-0.7538077042994198,-0.7192783390830102,-0.1924457696912357,-0.9362353515030705,-1.1223094061627583,0,0.0,0
13.078,0.3907334558390144,0.5801445116200481,0.8264577350751142,0.510878265452855,0.7515192193504922,1.319896704660576,0.5999403037582948,0.5735975900569918,-1.673291817454026,-0.9777828569689145,-0.662509780719469,-1.2698311506236728,-0.7076647617675614,-0.14477451347091558,-1.0934978282934267,-0.9183492043374231,0,0.0,0
13.138,0.68402936634591,0.8642395685362809,1.0897658537479014,0.3363707651871531,0.7694606622781507,1.4419667811795942,0.646838659983199,0.8024702888565594,-1.0891547718188646,-0.447752277515812,0.003201558798210343,-1.6515632220485912,-0.6773052211484895,0.013485202521801404,-1.0279691288146264,-0.40948665529920225,0,0.0,0
13.198,1.0159866174829824,1.0997421405867527,0.8832613769026929,0.254897883503289,0.572697693109489,1.3426516131611392,1.0646151455126585,0.8823980335177666,-0.30259353702235603,0.10201025223210684,-0.4628463809587513,-1.8440244204671743,-0.9972972546362232,-0.1079694882190257,-0.4092548079268494,-0.20743239873359,0,0.0,0
13.258,1.1611247225389894,0.919986228434581,0.4713171946894022,0.2546494218979093,0.37089418437375143,1.2485483070288919,1.3976778879419682,0.7870620215849753,0.041535336253796,-0.36172641976624803,-1.2263945434334642,-1.8424592672988014,-1.2973747587242948,-0.22440530004042736,0.20821825542418448,-0.42731027492873225,0,0.0,0
13.318,1.0757565541698941,0.470045761716887,0.4853867349168152,0.41940024730327824,0.24919746551462987,0.9479955127778299,1.2194844255208634,0.650104235912361,-0.15347842026013161,-1.32019491116851,-1.2105029407248238,-1.4977677147514086,-1.4806178728408137,-0.670541472215146,-0.1333983979468418,-0.7309853233139932,0,0.0,0
13.378,0.9089109108059706,0.17668652413201255,0.7671489015782672,0.7704441193152879,0.4213518530839819,0.48606431952414897,0.777232374395898,0.6575042150120595,-0.5122780334524639,-1.8650622074014434,-0.6392663534668984,-0.712815741310643,-1.2955777052515276,-1.163308345853076,-0.8231119899314473,-0.7126985385649699,0,0.0,0
13.437999999999999,0.8331921460678431,0.18190453008203483,0.8180470539530831,1.0740334410323036,0.9919078561063605,0.7685229348014447,0.6659999494887634,0.6743219838821415,-0.6706849224976601,-1.8595035745385242,-0.506276834141168,0.08479006741159904,-0.4640351384501749,-0.9035480708581439,-0.9886963996479458,-0.6810987715402569,0,0.0,0
13.498000000000001,0.7605339472990477,0.45366967486123166,0.6674503106046533,0.9767847356768835,1.309360472649078,1.4660102135356303,1.0118143162772708,0.5910091090546808,-0.8385924289025959,-1.3347662050551685,-0.7975728908866958,-0.21239291742997055,0.15120526853439706,-0.046200358549435744,-0.4902733290629329,-0.8710203107467928,0,0.0,0
13.558,0.5954153581072505,0.6516717797106066,0.5255921245928212,0.6139231562176035,1.353060502615,1.9335589330871314,1.6894218447865395,0.9322993419336784,-1.2172726697243927,-0.8374440486421312,-1.0635607628117956,-1.0379551913842373,0.2208932745551667,0.6102870252959015,0.618317684110038,-0.24103472157037098,0,0.0,0
13.618,0.5797256465681153,0.6766327791945207,0.537241155120687,0.6874384016455688,1.6296740500463491,1.8183116438837723,1.8750939083486886,1.2922204495053475,-1.3020945468427385,-0.7774308349727864,-1.0484144283844072,-0.8828105667319129,0.6217442883924459,0.4462903259978248,0.9808268723197248,0.6713065952788101,0,0.0,0
13.678,2.205303752864402,1.4693487291917997,1.239862903947077,1.295085407378482,2.2271005232277403,1.928624142867467,2.1211287926149707,2.221533963004142,1.306679683717697,0.43394120387279206,0.0010209745574390656,0.43021790607864424,1.5233079781513268,0.5007117674676326,1.193845871042858,2.345560699111008,4,0.5,1
13.738,4.803858147769516,3.4322604553568654,2.9335193393110615,2.667210736765494,3.722814438324805,5.2298508685748315,6.490205823174689,5.082369771734116,7.243201275246012,4.368195359064598,3.001484370464636,3.4234601353603575,3.5767144725541447,3.685009470239502,6.875735472333204,7.964924880874069,8,1.0,1
13.798,6.110853879621895,4.4775546934114265,3.9267541776176365,3.6975945591917814,6.197416516902682,10.188205947957197,12.000845904140775,8.518467661069348,10.818437613170447,7.139722635907322,5.327315512800152,6.2341743131419785,7.361999329713055,10.003504080282132,16.975397981875087,16.032951447818697,8,1.0,1
13.858,5.577414851428952,3.901811730599758,3.492716898560174,3.4719088059301586,7.498444175220904,13.13707023225205,14.170523234606067,10.09212463192979,9.58612852617691,5.835372530834458,4.448937440958993,5.67361107529348,9.69649809699507,14.199817494336505,21.370571284044583,19.96988092731785,8,1.0,1
13.918,4.430168294288683,3.146750069802207,3.090603152141691,3.7131054682608218,8.768962126083052,15.783162764854048,14.020469220510659,9.037277644052153,7.0860774339267865,4.387266791001218,3.775338683164653,6.115581590242866,11.521985623752705,17.28265715812039,21.12569660020282,17.51647756461754,8,1.0,1
13.978,3.972616692829817,3.35555146725926,3.3121485359868887,4.434232748748048,9.265264000697986,15.692091071616513,13.128168741719463,7.085776530782341,6.176594931376278,4.823385318869483,4.210956643315302,7.970483051417294,12.315171634059617,16.98993898220127,19.42047378224152,13.283154976092183,8,1.0,1
14.038,4.217119372114226,3.359897044061284,3.1123465762145672,3.7835645470286434,7.569278350459676,10.762606542111747,9.458177774016393,5.417656140810391,6.707257195860708,4.830272090724336,3.830326042088219,6.291166274074496,9.613905616355314,10.582086982804574,12.581578030874182,9.525156770766008,8,1.0,1
14.097999999999999,3.970709303283414,2.8842565522601196,2.844395318641027,2.9099480313095136,7.18928650266288,9.172294149605532,6.912513137561076,4.8094703458057815,6.128247579309206,3.821703298911069,3.332138163192459,4.45047536162729,9.147892871773484,9.095649845346372,9.132758555435329,8.342372614271959,8,1.0,1
14.158,3.3810480821568705,2.62406653526376,2.553931747847104,2.8010051630684774,7.548982476350151,12.106638391646056,10.188164724105725,5.8900133698670345,4.874350744055476,3.3070964087301924,2.7578495438767896,4.1817379715436385,9.752432426808506,12.845330401560554,14.26403019168154,10.677571641802382,8,1.0,1
14.218,3.780667174430371,3.4736097069031002,3.4101360468539847,3.771131692773319,6.9952665024034255,13.007929918692009,11.677567263227198,6.489204550954411,5.640189253587025,4.864200864466162,4.06160057163986,6.131740867606539,8.919820409482476,14.07756604143664,17.08925428629104,12.11387203957292,8,1.0,1
14.278,4.895232572925294,4.812452876687722,5.177645800951114,5.2028261950090435,7.186209273969071,11.819426244388964,8.61683971722731,6.194450166639167,8.083171125356186,7.752279199802177,7.53333064114775,9.745262113856855,9.215111394942713,12.560981905597808,10.946105167248634,11.43701602940133,8,1.0,1
14.338000000000001,4.599044302779355,4.4966641980258215,5.129940795304925,5.164898171856252,7.390878534594958,9.686684323212276,4.24029030106165,4.9732353094390325,7.270111763824789,6.916807871447315,7.460386300611682,9.69174778165837,9.541806602946036,9.935493966794812,4.734615307645162,8.472104812589608,8,1.0,1
14.398,2.8287972079390333,2.681940756858972,3.3530380121403245,3.7677055243639836,6.341595088702005,7.622181352207746,3.5510961154459286,3.1429638859210214,3.267898177526487,3.0834793573842476,4.002905162638848,6.177018636113474,7.691719381191789,7.425206079777809,3.776639360580267,4.47984505639029,8,1.0,1
14.458,1.3657452915177766,1.3507241803851346,1.8803772450369884,2.2593032413987175,3.897698441976048,5.156823565180364,2.8597486275939703,1.7599913579844582,0.1463968481852159,0.3474312743331369,1.2937360847397612,2.5928293363626893,3.398231499397561,3.9834110657516253,2.400343108286991,1.3291092602332093,6,0.75,1
14.518,0.505991174944967,0.5379722272440077,0.9408713844534556,1.3930439252181777,1.512759817695762,2.1871803984340312,1.604024639569727,0.6988917082145677,-1.6466316604607705,-1.2477465775018202,-0.44956474669454355,0.8493642890183848,0.33444611776936406,0.5283692931461846,0.48053801483771347,-0.8988650848123133,0,0.0,0
14.578,0.20594428380297633,0.31357971764004855,0.4197675353091011,1.3054784752358926,1.1677791985380241,0.7573919738991366,1.3501786107213,0.3688770688511349,-2.0958947862242283,-1.5705142592664176,-1.2939868108779706,0.6543568348373754,-0.058633537328415315,-0.894052387070873,0.14247110934186072,-1.3940871009150217,0,0.0,0
14.638,0.5179990928433138,0.6475210895710919,0.4398680827000588,1.0998028750473203,1.144139957222205,0.5541841134899276,1.3934953663185952,0.5689242460793602,-1.4901103838303371,-0.9330926022325502,-1.2456511073270813,0.09112567624912925,-0.09640125970728429,-1.0699305855466954,0.2120016102072444,-0.9321430188821593,0,0.0,0
14.698,0.6557534687480177,0.8244852545981214,0.5763322736944142,0.7884030258792158,0.9525034320863806,0.6153469501283196,1.1224231932363553,0.5987161116384484,-1.0794080082402735,-0.4749943227384714,-0.9625831030040817,-0.5917980903240593,-0.3957050863158871,-0.9875679916513546,-0.27262608585121273,-0.8392020134835193,0,0.0,0
14.758,0.5281187357436056,0.705673340806412,0.7889829774230736,0.7677285274926405,0.7701617459457754,0.5795943394654162,0.7500862169094089,0.4398553755192597,-1.372882560840118,-0.7400791440932032,-0.596092481803946,-0.6233480890173135,-0.6754326261978405,-1.0298740292743698,-0.8711064937520661,-1.2181106058632878,0,0.0,0
14.818,0.5566161540714076,0.7906013506035703,1.1216668838923491,0.8095639873601619,0.5939611706883253,0.5451463997665993,0.49404377856841547,0.27133029964580835,-1.3203066763966496,-0.5938447807831384,0.037446064042836805,-0.5232879163339464,-0.9559696804620738,-1.071347368755606,-1.2965642472416008,-1.5756589066586093,0,0.0,0
14.878,0.810048949296301,0.9971476048499113,1.1547588641452287,0.9752896668875831,0.5330299213327587,0.6311524307248256,0.42013280049225804,0.3153247562397853,-0.7534079968827667,-0.11523632866560203,0.10553485445281408,-0.15684461640716613,-1.0387053692128967,-0.9817823405849676,-1.406449388549887,-1.4918054305795605,0,0.0,0
14.937999999999999,0.8337146299152568,0.8885566194516488,0.7631465369928416,0.9833281222163606,0.5867490335489792,0.8302910333567911,0.6254872639779916,0.4955435899297798,-0.6896849372441016,-0.3601123222304407,-0.7655907754099198,-0.13909975400623834,-0.9552685925135896,-0.7387128172102574,-1.084317644436018,-1.081309167067949,0,0.0,0
14.998000000000001,0.6854621246264792,0.9211395937523936,0.32138852065438483,0.8679611192573389,0.5120273073250282,0.8136213841662475,0.6415460981499628,0.5312496941270871,-1.0069619714621767,-0.3100841953702057,-1.4789978189907416,-0.3989925654108104,-1.0803523461535043,-0.7570329647932189,-1.04825793176326,-0.9869241493180295,0,0.0,0
15.058,0.7583143350875061,1.232372478969272,0.4345448275415605,1.0673327602886535,0.612924121630767,0.6508885380949275,0.5738511755590586,0.4987261588145771,-0.8558037461888167,0.3650054427063701,-1.3064460838825747,0.05419217090362735,-0.9538523282856092,-0.943944451500442,-1.1703336987649477,-1.058305335904953,0,0.0,0
15.118,0.8458540504245645,1.2673636049708452,0.8754738611079863,1.1261131121775325,0.8876755691140485,0.8421777047726696,1.236945626414001,0.6947281603891592,-0.6445115324714363,0.4599374153241886,-0.4923445788611546,0.21824556677074894,-0.5085071890489407,-0.7709340489149801,-0.260955841695157,-0.671211293737484,0,0.0,0
15.178,1.3002354432825347,1.3055827056421299,1.1337077031420424,1.096709710075482,1.760328120973405,2.7324485462580888,2.861652239358904,1.5211844705084867,0.1352682919180592,0.5109048009101077,0.09223307129242068,0.13649463590145633,0.6063733967226894,1.0138886457149479,2.1921745472972067,0.8327356804728779,2,0.25,0
15.238,2.9174936215082163,2.070748625272185,1.425212667972777,1.5759792636141359,3.3582540056096253,5.371567702164399,6.346447960156155,3.676611189149482,3.309438052862152,1.9534211116250624,0.6025774201983685,1.1681092577148964,3.0435056671611243,4.4447157717714605,7.576124967178625,5.138060226731494,7,0.875,1
15.298,4.541858103573656,3.015595291665702,2.2176209677546863,1.8967162430215745,4.074945901534762,6.6830013502365,9.052742750607399,5.6718472115661545,7.248991824482492,4.030782415935241,1.9926745656399287,2.0507219405706976,4.419561632431013,6.3840857807368785,12.792781979089831,10.119979669636953,8,1.0,1
15.358,5.453266324439974,4.3531122924013275,3.487891125971824,1.992566704351439,4.436387798221368,7.577753265436459,8.932680255749696,6.399610811573224,9.390582740553134,6.712934361086046,4.36215358567545,2.26443045437332,4.925480892644708,7.4196531664404475,12.585501991558289,11.910185142538156,8,1.0,1
15.418,6.942182499775495,5.208931451843131,4.173819100189606,3.0035596881071034,6.283495733734517,8.631676375059861,6.981098507925304,7.783593475582204,12.41632834042271,8.686017374326045,5.8424966321056075,4.360935725487203,7.579775513380187,8.743354304358213,9.317740417031054,14.634956079311175,8,1.0,1
15.478,7.875610548740946,4.3872351424823295,3.714606830812389,3.5682695492273293,6.617979230741377,7.45886047174337,5.721621362150803,8.853752228902279,14.623135283972232,6.680332453688227,4.904059488592538,5.899307945789908,8.111001442011263,7.0145195454020675,7.366873118161338,17.104208581760567,8,1.0,1
15.538,6.548422024956645,2.8110777023041087,3.269876974570641,2.9766919750013647,4.690716882363072,4.807273258043615,4.788538497799161,6.743048228519758,11.400955838060431,3.5729325406924057,4.124506294903331,4.427797486232866,5.007695501216618,3.9004610372159796,5.707603794502302,11.339059375033399,8,1.0,1
15.597999999999999,4.370994790717222,2.616845292501854,3.595763433762617,3.6007737591455116,6.274522220491189,6.696518517240543,6.0067875115264195,3.199784451158772,6.851712819507064,3.243754574561196,4.743111678166376,5.6569400848946545,6.924571534935631,5.669221457211212,7.249141324692712,4.42393431351869,8,1.0,1
15.658,4.862635681497368,3.748831008942638,4.197273212342108,5.838932534992909,10.649272010428481,12.919177476158861,9.625755484783713,5.077382731317068,7.738398593379419,5.462625354729756,5.86541293021275,10.994937795241809,14.043550916052617,13.102215276372734,13.400489839879484,7.6918700679113,8,1.0,1
15.718,5.9101387863073365,4.0922425798991515,4.040977212928741,6.29650535294322,10.811287023462997,14.116513612708204,9.572835914141256,6.9310159019121125,10.248652421112313,6.264071167636113,5.452935204739119,12.244775597571552,14.256223048953041,14.944848296288706,13.17546183082112,12.820715548447248,8,1.0,1
15.778,4.482646057762213,2.8757508437421024,2.7825726060952487,4.366699072674647,6.430165454527568,8.753877531525156,5.3684562800670985,5.402013465291932,6.150808514603465,3.3493172773715236,2.9408394171710825,7.133417762130475,6.768418232603591,7.314443513737088,5.028034431133615,8.478970028158594,8,1.0,1
15.838000000000001,1.663274400649507,1.4243371331668648,1.8710457171389936,2.1023076410769406,2.7451154579375667,2.970828734886702,1.4993702420899755,2.1581674195799136,0.5857138071421671,0.7129248452224665,1.4899497425798067,2.1970049375048144,2.3175076890831816,1.6212457912588467,0.17442228960735187,2.037810946546013,6,0.75,1
15.898,1.0300883823841305,1.197227963589942,1.563264944180226,1.002398203757109,2.2323797065153603,2.11164196827923,2.178268469756564,1.2364973538466753,-0.31583860145523623,0.31288391434003754,0.8407745967731094,-0.3906290819107772,1.5399099669748733,0.8313870708616667,1.2292943454834275,0.5610887004511387,2,0.25,0
15.958000000000002,1.2671710749005123,1.3676995619946661,1.003860453852379,0.4505450835998121,1.5850511377246375,2.053136711320985,3.005797704444677,1.2526543654602182,0.2653963762938851,0.669111165372401,-0.2343439121569343,-1.420396007966337,0.48467162378989137,0.7569649645046056,2.863856008019837,0.596252643702657,1,0.125,0
16.018,1.0789094583104109,1.2913268627403571,0.636384127740662,0.75470945792672,1.189444032808026,1.7167121245465429,2.802454467484869,1.0619057977874689,-0.2113766296997477,0.47836610274904556,-0.86125339578619,-0.785765087384608,-0.024604427915822333,0.32832717800034344,2.4838398930257726,0.1689900525229516,1,0.125,0
16.078,0.6739301217475928,0.8450747314981101,0.6121447871776913,0.9370178420720734,1.1582063246534358,1.194261911249957,1.8538050942144972,0.9284884523987782,-1.077911137399957,-0.5810671571003071,-0.894993767298529,-0.23212988867945952,-0.07990116673714683,-0.355168233395353,0.785283696768864,-0.1048990393268409,0,0.0,0
16.137999999999998,0.5063823612444549,0.4466353323383565,0.7386711834686058,0.7720731246507035,0.9309396539571235,0.8735260481838086,0.9571497003374653,0.957251184072485,-1.3929206731691617,-1.305167230488272,-0.6577239962355071,-0.6514510892155897,-0.439392721008133,-0.6983867430353765,-0.5879298002933068,-0.04494982669943498,0,0.0,0
16.198,0.8588015905374,0.8695660660116447,0.7946806698794621,0.7225242690695294,0.9159140098688193,1.3790925447957652,0.8983618693946458,1.1016721621135717,-0.749500941861156,-0.5866588553593218,-0.544410658405753,-0.7590513688023175,-0.456657206769232,-0.14586515990197776,-0.6525614050152319,0.26309378838106,0,0.0,0
16.258,1.1174053100513888,1.243872172357725,0.7269889261243941,0.9672968804376344,1.0008900370150076,1.7364191955560964,1.2787215249776838,1.112186712694278,-0.07905025629675057,0.38159593706210343,-0.6765580435194173,-0.18356789472018306,-0.3151207138613638,0.3728839431302697,-0.0005742738631423702,0.278304836605149,0,0.0,0
16.318,1.023583064847666,1.046635483058832,0.6199785547748168,0.9402517769033222,0.8697137397594329,1.8667749274858252,1.345519923812954,0.8699521214960567,-0.29152422237379516,-0.13509136725815957,-0.880828367522205,-0.25092832072948534,-0.5254852199410455,0.5266757240845615,0.13762385714701883,-0.2814797901115809,0,0.0,0
16.378,1.4514604196083494,0.555092024002362,0.5686072527322549,0.8154423589077081,0.9455386588864332,2.2544357291330774,1.513660949650533,1.0372678559467898,0.46816698223361347,-1.068803690942228,-0.9807077132845293,-0.5168946934555039,-0.43432414186575863,0.9819807739258497,0.37767480769566214,0.010716937270800031,0,0.0,0
16.438,1.7892561881830178,0.46952233827861695,0.8987814765813953,0.8746142057482941,1.3440413160508609,2.286812159253786,1.7060331142860823,1.2942330846041588,1.3408170599232327,-1.2096567050195315,-0.45111546270257036,-0.3700276023539523,0.17570877282914754,1.026437798748323,0.7233653049934755,0.6557132843798334,1,0.125,0
16.498,1.2765983425914542,0.7678855762274345,1.236465487307944,0.8521572309732854,1.85418746659682,2.9849037111434815,2.0509940239274576,1.232180786769894,-0.12450726953285983,-0.6732418220288703,0.27429468173081445,-0.4227537033124407,0.9539049417836573,1.6430951400395015,1.1763075150882956,0.5087809070155589,3,0.375,0
16.558,0.8677847108307862,1.5716307626054966,1.8563129831299985,1.1788940033220112,2.694171921657653,5.340817531518559,3.7462778752530976,2.112769897391145,-0.8680926687680098,0.852828383410336,1.3036440247263164,0.21764432430014105,2.2009675122484516,4.405709528412316,3.7149723760212723,2.075398066902324,5,0.625,1
16.618,2.341330037256889,2.7153239985402293,3.120205485242038,2.050077911515414,2.868782915775563,5.425646236076204,4.650949560418708,3.125401279126342,1.9573159600018064,3.2978225339216323,3.6277623960987326,2.204818098548172,2.520451292546059,4.5899463467816615,5.593301772285571,4.620356723532138,8,1.0,1
16.678,3.936106007258802,2.8390672263548082,3.3254114327868667,2.747925447227177,2.389392031663318,3.6122935609875313,4.371852506923364,3.089034182449345,5.882457887940441,3.6137434912708115,4.13269848750113,4.038628970566081,1.788366849227721,2.546892101287501,5.125352986526392,4.579519173596489,8,1.0,1
16.738,4.573475696412188,1.792894405154346,2.245204588662943,2.917166495862099,3.7923997530393097,5.286784382409322,6.013289892388557,2.924187283584992,7.473166094908902,1.2417503508411964,1.9787323983674723,4.474304481836568,3.5068989425911963,4.225010117812874,7.40605876557148,4.2461365313781245,8,1.0,1
16.798000000000002,3.9270508473194123,1.0630072400463246,1.343925840727055,2.799299001830995,6.404280994761013,8.459376728864083,9.490878536134721,3.5165085323218452,5.92278984188619,0.019825940237421194,0.4588380801925733,4.182501855562049,7.681019353536296,8.281116147265704,13.221017178319306,5.536161299349696,6,0.75,1
16.858,2.5767351620201815,1.4617848449889448,1.333928275986805,2.41999141952561,6.977902350896806,9.555947274350487,10.695092830143455,3.7205768004895363,2.8209154187641925,0.7861301400609566,0.43030531826811863,3.2303433772409686,8.833713730930654,9.873057280928093,15.52170659012443,6.02291133883217,6,0.75,1
16.918,1.3798838866930139,1.7112793913388105,1.964659814365963,2.165864869093645,5.505681564590615,8.020000470936665,8.26011016030238,3.4728253599452503,0.323182689320376,1.3806563816264976,1.562090695794098,2.68748862742531,6.49607030349355,7.829731038144445,10.959189621901471,5.475288195011768,7,0.875,1
16.978,1.3256140491934396,1.416477674112358,2.2401334784875844,1.9855481282681373,3.632883430318858,5.312849035611684,4.625173147976303,2.911873791854835,0.24062594386885308,0.7043031460192601,2.179190657782416,2.189544341693906,3.332968074248915,4.376353440710376,5.183361777197565,4.157572775237253,6,0.75,1
17.038,2.282825079403395,1.0281066568701012,1.8769758614505192,1.3518419507950226,1.770475154836851,3.1773972206356995,2.7796095446068114,2.5047333600848636,2.2895515578294203,-0.0427645729155009,1.4558240665672493,0.6212725352368771,0.6919018546772029,2.080264199623409,2.4478629933055753,3.3432547317213555,5,0.625,1
17.098,2.5154270949758675,0.8797518375949649,1.5253112188425841,1.0778808777023732,1.6089432814421194,2.693787736058435,2.492905521045147,2.2296473835806174,2.9371126532569085,-0.35236937852302525,0.8379089428236294,0.07867385358391178,0.5376838565460971,1.537226695565025,2.0413452903946854,2.609610695379405,4,0.5,1
17.158,1.944878891892706,0.989242755429116,1.3863656135290565,1.399633481633354,2.0158045804331075,2.763661014456804,2.689811845490544,1.4507697168640572,1.679648033360387,-0.15137390331545117,0.565441454951331,0.8337190876428723,1.231035189820242,1.621729986470801,2.3708518481815744,0.8719600699137099,4,0.5,1
17.218,1.5810789061723407,1.129400090150019,1.0657736576771837,1.3672243338874168,1.668037737025735,2.461151496361983,2.44626746750281,1.0343205703287972,0.9599467472800814,0.17478518929331374,-0.1003688575046238,0.7395456539524498,0.5752603241389372,1.1673924217499858,1.9231310732582105,0.1272708456150652,3,0.375,0
17.278,1.3480711014780078,1.0086663797813116,0.6709000294124915,0.9879904604591824,0.8919476570875637,1.5052050130799959,1.8993694791413065,1.1190391235553436,0.4042986473315342,-0.08929590756230836,-0.8091766625058385,-0.1381195666298263,-0.563422295346632,-0.05813399230020363,1.0346630187595482,0.3090783334416976,0,0.0,0
17.338,0.9666478083718727,0.8145576502741666,0.4549652509954476,0.8759912330676345,0.553578897146225,0.9773992386911937,1.355154767357267,1.0123908250926412,-0.4239010255229126,-0.4928383877331113,-1.2113970370519265,-0.36437612284348514,-1.0037041801459181,-0.5587046720069018,0.027053564788026247,0.014186382168632475,0,0.0,0
17.398,0.8010484334388996,0.6596138846405396,0.343789625463381,0.8448532925188683,0.5397833175216062,1.14536687134371,0.6750440644833899,0.6259852064380445,-0.741644307440893,-0.8167835704649704,-1.4008583499139713,-0.45493713462216406,-1.0228755165330947,-0.35219283813979935,-1.1127410279042438,-0.8834800843250584,0,0.0,0
17.458,0.7601396912723114,0.5103288133403915,0.48623273018287205,0.6019904874967237,0.6413165005193896,0.9824331443963344,0.281430504789642,0.5454767694425535,-0.8370306861565503,-1.1381966031019928,-1.1718140055778041,-1.1102982104040098,-0.8740463132781544,-0.5994216061294325,-1.6417108756575878,-1.0118932012363273,0,0.0,0
17.518,0.6906108787223194,0.4509486372552035,0.6958081043432973,0.3526435822083608,0.9672221232827029,0.5450443103136245,0.7593905901667087,0.7505014527247282,-0.9843569985227206,-1.2445116158934553,-0.750128923197663,-1.611569437566699,-0.4189628227621814,-1.1035424930748188,-1.0886398422011008,-0.5194296428490396,0,0.0,0
17.578,0.7559192704486263,0.5305555931355738,0.721523198996063,0.4281595799999898,1.3791792719020817,0.35260138450276246,1.6461738651538174,0.7156604296258072,-0.8471201910114824,-1.0795460993011903,-0.6882972433231441,-1.4501993998119846,0.24177251270901964,-1.3077717092987744,0.44595203704844194,-0.5943186998409563,0,0.0,0
17.637999999999998,0.7572851445726329,0.5764890541574469,0.8868017715494529,0.5953613768350178,1.4332775286232058,0.3452032786109033,1.8699277474062108,0.6881376881520388,-0.8463600900575141,-0.9788733033284408,-0.4263968677792173,-1.0480867188690297,0.34192983402333027,-1.3198511657375795,0.9725154563751004,-0.6531722827686103,0,0.0,0
17.698,0.5697917167046107,0.5975922385114029,1.1426054577957425,0.5829368418098173,1.1336099775331154,0.7638252624460251,1.4152912107648827,0.9608082773446972,-1.2922837975695234,-0.9353934922345943,0.09761261650923302,-1.0831536640985344,-0.13340591191135534,-0.9182725253020948,0.2104792176248894,-0.08369305192165623,0,0.0,0
17.758,0.43939231148691077,0.729915050783596,1.068606808185701,0.556719230571488,0.825825804968597,1.5560706586316098,1.172591971342886,1.366593238649357,-1.5552298015578419,-0.6820301690401646,-0.04992487890469096,-1.1651126674431798,-0.6019403553654712,0.039742995281187875,-0.14286018791599864,0.8063852812393439,0,0.0,0
17.818,1.0452244914641426,1.2518814089475607,1.2776656283668413,1.1577021852049505,0.9223533332826257,2.3835871957238055,1.8145258121771797,1.9131104983980474,-0.5426386562483579,0.28472542863423794,0.24102384354769665,0.039118993494564804,-0.5235663426396558,1.1023372381808663,0.7202908577481452,1.9636550576258855,2,0.25,0
17.878,2.3079488277371145,2.2082348193627404,2.4033976593522586,2.0360530054801638,2.200999805071863,3.558502879971381,4.4004922790802246,3.3970131680034417,2.1547857317950756,2.228634107732756,2.219038329607992,2.2035223752670943,1.1545145900095706,2.4800396634004627,4.376038360321052,4.857546122825496,8,1.0,1
17.938,4.553520875833575,3.8824377500233163,3.8904489209000643,3.3841269303101877,4.012636879882047,4.480481173311473,11.047861927822199,7.221382708132375,6.811182653204778,5.57171498444657,5.126111984861811,5.267957863934593,4.070387309059356,3.693534288260801,14.305170595752271,12.416476862463675,8,1.0,1
17.998,7.249475933819025,5.434056680040145,4.510657164679593,4.932090807100047,6.532101297619373,6.259859882279293,16.871427790545617,11.364300001408989,12.909155902878014,9.073550493526486,6.467104723686979,9.056531550477905,7.884934602839615,5.641226073537478,25.33203684148258,22.20008164535028,8,1.0,1
18.058,7.326244895481979,5.555190662637896,4.1356133458360445,5.604488131283163,8.445533422111566,8.98096292213832,15.832591492042301,10.705989705897554,13.083182790830369,9.383842635747259,5.753398175650832,10.830394469312843,11.104872498048069,9.003603490069404,23.348473163756328,20.21271331228362,8,1.0,1
18.118,4.554876012326947,4.327741133250874,3.917352954200821,5.3001873480726465,8.769296653277971,10.355168609821263,10.330295392684707,5.757090848671315,6.551675737068655,6.687504113694261,5.371868811002159,10.098455452222272,11.662873307938199,10.848649545311233,14.655472085453596,9.133675853622849,8,1.0,1
18.178,2.9527948513526727,3.7110853775168553,4.245386936014334,4.703491736261673,7.839721763618639,9.974056044098417,8.563773308249237,2.9100016447492387,3.814756790570709,5.507922095337444,5.970141835916809,8.677576522853565,10.150750238365175,10.374275038837835,12.100652737888081,4.209764941681711,8,1.0,1
18.238,3.9738156848124317,4.989631708311212,5.103204349625242,4.263723401470895,5.965565019566698,8.568471387516201,7.79053597216492,3.804749527351359,6.018160601459669,8.022020187285348,7.53964991869933,7.658004204821865,7.093990435233651,8.608274293744572,10.711790364179727,5.90003403714766,8,1.0,1
18.298000000000002,3.832464277320732,5.388271148481668,5.6412220902174495,4.354273016339165,5.033596968303657,8.421808861257688,6.288588186386825,5.05970450408792,5.638124863217288,9.01960612045561,8.631404818100892,7.868533540538285,5.8411255879447355,8.430653357622242,8.295788777740716,8.875644769234993,8,1.0,1
18.358,2.4686715717873002,3.900445280155281,4.71194908612015,4.255146930102314,5.491283314950664,8.58019048773665,5.656396973018302,5.076968915420727,2.704647884252365,5.495943312799095,6.577945374132448,7.591773274956503,6.572432136231462,8.585562877063147,7.275195066624982,8.970351783920526,8,1.0,1
18.418,1.8160178217816294,1.9613076449427485,2.816297292193808,3.2704703979971246,4.708104404077501,6.388977775089321,5.747239350004849,4.1373165794604905,1.4731522042912426,1.5052011893366937,2.902720940915431,5.0359785412315405,5.22600025534321,5.6492189303811715,7.424321828710499,6.821166066166563,8,1.0,1
18.478,1.6345017378073767,0.8421861263926278,1.4988409000147431,1.9269860192751131,3.016514324982928,3.598772030718881,5.073770934490333,2.8065184722628786,1.0565649823688068,-0.5472038148266362,0.7132038975295498,1.834631284305253,2.57838768333148,2.4296752993819175,6.07356437267304,3.5986055276412574,6,0.75,1
18.538,1.2791798917626978,0.42496593811684163,0.9402860571871441,0.9717566107581704,1.717474607549882,1.8958031146213967,2.9652961754148786,1.329476157166535,0.2534826784784769,-1.356316157822576,-0.39045461546233673,-0.32363192792364276,0.6581437810313978,0.1890234890689325,2.1452180182505813,0.37796721160137975,1,0.125,0
18.598,0.9317421574802335,0.40665004349291983,0.5792630811050944,0.47326991852984635,0.9910616605411005,0.5659257872000433,0.9969354096955069,0.5139890699262575,-0.4829963106649689,-1.3859033401547498,-0.9612918510376461,-1.365482809934967,-0.377609219624828,-1.120731268097845,-0.6483006132476167,-1.0646394702439863,0,0.0,0
18.658,0.7096231893655923,0.7747580183305367,0.5655376882334089,0.29394278225194626,0.5964987322812854,0.4038915152980181,0.5162865149711979,0.6370574112355952,-0.9573576892905885,-0.6610702134821201,-0.9883549105060069,-1.756151776214005,-0.9857617997310287,-1.249971440463646,-1.235317313024309,-0.8400938140293691,0,0.0,0
18.718,0.6349552089599391,1.000315404664223,0.43990181133471146,0.26512607927052073,0.5073926382301968,0.5613323871963253,0.7208519207882695,1.0410214261595563,-1.1045921146097808,-0.10977429120389472,-1.2623444096575962,-1.8125177080033188,-1.0966751113761366,-1.0646312722246807,-0.9335284308317305,0.06952655104804334,0,0.0,0
18.778,0.596109402046946,0.8145642493984396,0.30585300706233526,0.3022017515332824,0.6565583429527039,0.5875917236690935,0.8353960266541213,1.0761108554026708,-1.2044028201172738,-0.5860176996838512,-1.4722020569828052,-1.7234940476624636,-0.8523079775684425,-1.0290350286155914,-0.707037430551774,0.17657265741926967,0,0.0,0
18.838,0.4523271047162464,0.5195003691615159,0.3161543045632161,0.4477337940689413,0.6953269790371763,0.42120730163158104,0.6995705768577082,0.7304549399811177,-1.528306356893235,-1.1196341994782435,-1.4510178025545677,-1.4226537227063891,-0.782352273653522,-1.2449134901041912,-0.9421370798925884,-0.6072303625297065,0,0.0,0
18.898,0.5172260498820002,0.6939043543358038,0.4294755270565063,0.5777680831821789,0.6600442309063024,0.3653293126672843,0.5582937727591569,0.5014375421242886,-1.413654124479453,-0.7807838346377758,-1.2673335396218182,-1.0803150778480364,-0.8395496591484038,-1.3013720142133014,-1.1644555596673765,-1.0468341234405236,0,0.0,0
18.958,0.758277950693324,0.7511563945021903,0.5642323522336724,0.5451399312917605,0.5619183017960715,0.5336077257479345,0.6396631577378662,0.5081988432888704,-0.8661895580011615,-0.6359635564142018,-0.9899737081157367,-1.1569581749792077,-0.9995143671588637,-1.1013542061941144,-1.0427576423099267,-1.030987411641236,0,0.0,0
19.018,0.7101153768840115,0.53600049368618,0.5503657333417337,0.4663072538092721,0.5939775622530661,0.6896223974170141,0.7842447118071584,0.5219499569073949,-1.0026635758629745,-1.1177823071147592,-1.0127930148481707,-1.3350453380745886,-0.9579284628869885,-0.9002270227621462,-0.7891408657526745,-1.0030014389643935,0,0.0,0
19.078,0.4318695506146676,0.4138251570226346,0.5052963663391291,0.3802356344534689,0.7465248046632894,0.8716861031052207,0.8192684143453032,0.47713533596398494,-1.5811970761590894,-1.3261238574781402,-1.092653391031669,-1.5631301049244415,-0.711141841982506,-0.6848042810087587,-0.7278120103055375,-1.1050322543716002,0,0.0,0
19.137999999999998,0.3461373668813216,0.416892840173674,0.48690282355756914,0.2711373272423981,0.6672502922341296,0.8805879635689896,0.7655762696009515,0.5044665511458306,-1.7354104931073742,-1.3250447215743109,-1.132516696779135,-1.799857717979905,-0.8564601975183939,-0.6803417135996513,-0.8192620084148018,-1.046524980270211,0,0.0,0
19.198,0.45319262759419493,0.3077389927253712,0.3800550498094355,0.3815939860982281,0.4265354908915579,0.5786649240572351,0.7936322111367513,0.5370344329815476,-1.5235714935808247,-1.5719937774811326,-1.3504939611377764,-1.5850203451984681,-1.2159763158186994,-1.1146576190861806,-0.7774255244287955,-0.9662446664138934,0,0.0,0
19.258,0.607341265402088,0.24058071708748546,0.292505877709997,0.6891956948828412,0.4159630182756608,0.26333888608931194,1.1626317558630115,0.5309869919494268,-1.1784316795012326,-1.689541454711214,-1.497097340756192,-0.88726122459724,-1.2298451581978624,-1.426265117983317,-0.2246077452174885,-0.9790214223548742,0,0.0,0
19.318,0.5569507826010867,0.4568850520096037,0.3980858102720403,1.0307259558873887,0.5044707308266307,0.4045520673483938,1.4845757563768227,0.6159439644377576,-1.3239053230897395,-1.3091762051726723,-1.321078635964305,-0.038405362386158354,-1.0861710804243845,-1.2781253945715145,0.3527241981357357,-0.8042271787729413,0,0.0,0
19.378,0.36652675080853436,0.7568939978104651,0.5824245100979139,1.1034164871532568,0.4291159507497195,0.5955925809197008,1.2763162590366233,0.7755737080711701,-1.7183391402388803,-0.6469876604194698,-0.9666104035451126,0.15450290241111578,-1.2167653633366002,-1.020342145555013,-0.05762700340278029,-0.4580701005284096,0,0.0,0
19.438,0.6618414803813637,0.9023220509950655,0.7169744724175217,0.7888283960980478,0.37254165707833853,0.6489593706762901,0.8883223587511941,0.8357441580929776,-1.2101389328066032,-0.29846248039759754,-0.6950296910186476,-0.7228237188072802,-1.2884371530083014,-0.9452528864589409,-0.6234163341908349,-0.3097205670136139,0,0.0,0
19.498,0.9252052921023064,0.8485644476166827,0.6689637361635264,0.3457500834210533,0.5672355457241184,0.614430569482111,0.9271134641302217,0.7505070936998062,-0.5018297334143289,-0.41460676002484226,-0.7984349865834749,-1.7223052758382462,-1.0090639389621334,-0.9902711185854288,-0.5531213956833159,-0.5047806575481554,0,0.0,0
19.558,0.7849819201800833,0.7428008413942357,0.5729769593927357,0.16841115243043414,0.8051801006650385,0.5060042722364889,0.939843914679143,0.6079675776190019,-0.8571636817377062,-0.632256281076008,-0.9671046750768358,-2.054229980541369,-0.6305880053741114,-1.1347511597919595,-0.528869507116524,-0.8265253205133583,0,0.0,0
19.618,0.4631476398248311,0.6249220286081202,0.5951508180448432,0.32498598036641724,0.7974683308471207,0.5414911049293878,0.9701969138391562,0.5421170979037797,-1.504436258088347,-0.8976005624911271,-0.9229466238368104,-1.7468670257504233,-0.6497538001749001,-1.0980249186389988,-0.480785356588545,-0.9556121892667709,0,0.0,0
19.678,0.3705306949064126,0.4340144478894831,0.5703641216881262,0.4790714098507458,0.5077116991839512,0.6125486417440469,0.9960812431543081,0.6291035754546453,-1.6825548482361732,-1.3206289679117658,-0.9733989188826783,-1.3164122945782102,-1.1440175030797108,-0.9989336954093275,-0.43792183866726503,-0.7704511283456114,0,0.0,0
19.738,0.40870414870888655,0.37838088458457914,0.45913127175962487,0.49564733291054197,0.3151207034584247,0.4476673751932708,0.8140744625337634,0.6480461969892856,-1.6019551981013749,-1.4127855052953608,-1.1957201591013455,-1.2658666338323836,-1.382226399812329,-1.2232020179189145,-0.7688332848621711,-0.7354373119303895,0,0.0,0
19.798000000000002,0.4180438922457204,0.49474186099816125,0.6678484680197735,0.4616193462884494,0.5431652086205087,0.43742080653918247,0.5620819749602786,0.470064428713767,-1.579248515792754,-1.15885514129577,-0.9115970456890309,-1.3447902535250034,-1.069974899246822,-1.2368705751499656,-1.167973767589285,-1.2005719811249593,0,0.0,0
19.858,0.3762836427752772,0.5120579582178154,1.2269814340736274,0.47468239958976755,0.7427905566274732,0.6429287984992482,0.39840951287141285,0.26942000218854034,-1.669522898612229,-1.1166671521665836,0.1585455968758082,-1.3154182523830675,-0.720338766998739,-0.9689457035374184,-1.4449315727169811,-1.5685931990434396,0,0.0,0
19.918,0.34043548226086645,0.41432851017460537,1.365462729094954,0.41770612677189967,0.652791211346122,0.6972632258510494,0.3069564530945861,0.48133806498850357,-1.7481564750850718,-1.3340163051153617,0.5181800904428728,-1.469501993774384,-0.8864591956198323,-0.8871352627659368,-1.5862458463508897,-1.180010792493773,0,0.0,0
19.978,0.34629130117487306,0.4784317079127803,1.1397964898844224,0.39388212170952275,0.43366361056155917,0.6902099912998059,0.4287285336513861,0.7135836513234789,-1.7361650988846424,-1.236076551066954,0.1011053721209687,-1.535502917536378,-1.1911111578132816,-0.8950628652196119,-1.4029520874520613,-0.6009270944673939,0,0.0,0
20.038,0.3533997410081294,0.820424526643295,0.9237665418081946,0.700903821633263,0.4558017410174567,0.6959110332833246,0.6553721862770407,0.6473929058026093,-1.720558931202605,-0.5407069900286856,-0.3308084076894491,-0.882765429772458,-1.1576336925748303,-0.8880011134055624,-1.0307445406813662,-0.7868431787672452,0,0.0,0
20.098,0.3147116273252742,0.9839361595194888,0.6512987266902733,0.8342676882983265,0.6261335806488934,0.8356797758520549,1.1472434813796224,0.396978104554193,-1.806754340396749,-0.12953374904735973,-0.8454240575338471,-0.48551250483796804,-0.9068086318112556,-0.7366766696368076,-0.28339477897187076,-1.3024432118677745,0,0.0,0
20.158,0.4698033866816443,0.9204233416881394,0.4716209047582747,0.6206505221135248,0.7562862603212057,1.0406738007368552,1.2917562625707453,0.43971807990479733,-1.5339175736076778,-0.2621095446363377,-1.162037352319121,-1.0553751877829907,-0.6906365026363526,-0.47565529013744845,0.01204673082196688,-1.2106531153483522,0,0.0,0
20.218,0.75433255836687,0.8245037531469174,0.4567602840808372,0.545656732458198,0.7918821598362864,0.9732759513109722,0.9001842861241757,0.5147302781951435,-0.8886402320106094,-0.4626438106905468,-1.1926375514696412,-1.1940437702389766,-0.6347058816377343,-0.5682666477667491,-0.692990724185249,-1.0204875072514155,0,0.0,0
20.278,0.9024373306917841,0.6816708012476577,0.6240291609432493,0.6902512677331377,0.8987585392115575,0.732104196578199,0.5687444912416627,0.41380542815759325,-0.5233214445811076,-0.7765222539680555,-0.8953764239362165,-0.8192504745063095,-0.4775559768533643,-0.8535164994188328,-1.1445111366853709,-1.2660826734109663,0,0.0,0
20.338,0.783642366113437,0.5708258865803434,0.7267295162314054,0.606803911811812,0.9926872298521017,0.6251897768282124,0.5708638224941264,0.3550448221542468,-0.8166000040826233,-0.9915666417873452,-0.6733044748352685,-1.0396639543762929,-0.3246917172783044,-0.9737011210955093,-1.1402002876880521,-1.3766528206256077,0,0.0,0
20.398,0.6062478250639205,0.5588866014769847,0.6548758924616529,0.4228600514225044,1.1157478498255171,0.6251429222421586,0.5305945212365102,0.514183124448186,-1.1710375389980585,-1.0152461053876622,-0.8183378311539462,-1.4463368681438071,-0.14389953196748675,-0.9745251186160159,-1.2103254940973003,-1.0471096332736807,0,0.0,0
20.458,0.6596057187572134,0.5467887792835632,0.5205281857780145,0.5255862308888464,1.1079456605189744,0.6766850811406425,0.5550891314055191,0.7581581508395548,-1.0573308336130272,-1.0404276823272935,-1.0738826407988684,-1.2485378084120862,-0.16220579300068386,-0.9128542921844075,-1.1755956554200997,-0.5131890540491009,0,0.0,0
20.518,0.6344995136253321,0.5994091975758042,0.4319899530856313,0.8009549161334425,0.8190427690731648,0.6699659645442964,0.7064094728333592,0.8394966661033642,-1.1239026894415332,-0.9403827249196369,-1.2315709429525727,-0.5853799075015476,-0.6303138501459308,-0.9209946623874258,-0.9245153717876743,-0.3114832404998386,0,0.0,0
20.578,0.5551710687885605,0.7577027235693005,0.4402005547628347,0.8067936281693384,0.5918746300348227,0.5549074105055612,0.8322414599625717,0.6913632353536323,-1.287698222518897,-0.6185179708062855,-1.218214010789894,-0.5620406516807169,-0.9452565252223936,-1.067181396859909,-0.7103055685493272,-0.6521318504417608,0,0.0,0
20.637999999999998,0.7465630959389353,0.7710671035149828,0.6744613726177755,0.6305789222392849,0.7402024831566315,0.4387733198912268,0.9762819415791826,0.7106397282935684,-0.9049707156755472,-0.5831670108519129,-0.834342184333607,-0.9552148762306903,-0.7470437774226242,-1.2036657478495063,-0.4769946771769784,-0.6200564836692818,0,0.0,0
20.698,0.8335280200209292,0.6610876024318466,0.9042378361177243,0.7268904616786046,0.972628315366582,0.3874992849876456,0.8929277791114295,1.019164490503149,-0.6910262904396678,-0.8043018091029825,-0.35895519920676483,-0.7442511408039857,-0.36837027111980447,-1.26326144686827,-0.6544616010322056,0.04547436345619693,0,0.0,0
20.758,0.659207399421587,0.6287373804850314,0.8359087945369863,0.9226272992749321,0.8654626781465959,0.4280944492225591,0.544643511911941,1.3030870345490975,-1.094443792288746,-0.8707851058725266,-0.4957639452047589,-0.2658359535018448,-0.5773565099164457,-1.2246887680744212,-1.2364006985495795,0.7011324312640516,0,0.0,0
20.818,0.8200280852833871,0.5600928409319541,0.6676504219018523,0.8948653979839113,0.49624976817550276,0.6414628095390351,0.4456759592957537,1.2090168624555455,-0.8209845603086873,-1.020750745902643,-0.7850470869333992,-0.33963476490022493,-1.13659764034566,-0.9826252662746143,-1.3609168634764746,0.44750339346469853,0,0.0,0
20.878,1.2597634215458071,0.4491454306421557,0.6407734325649901,0.6932676167630686,0.32580584389455797,0.6315634793837186,0.578371431441286,0.8175097976075586,0.197207037591539,-1.2535726012658255,-0.8370625695255286,-0.8115372045858628,-1.351700195349199,-1.0003336077816225,-1.1344604577289308,-0.3978720621478305,0,0.0,0
20.938,1.2434358371099081,0.39147181582666746,0.5198876585839064,0.5145672101611234,0.3240815001497064,0.41791215587043273,0.6302102933862133,0.636726089318616,0.16863355135868682,-1.3692933030236512,-1.0934508475089428,-1.2521197597934715,-1.3540262006671702,-1.2393384820508642,-1.040657103116289,-0.7481404407395175,0,0.0,0
20.998,0.8611406935711412,0.45217543659624326,0.3704838575550567,0.3192463630473883,0.39781550069922933,0.48333126426950146,0.6532691064168744,0.5391087778425794,-0.6510081178705946,-1.2488582429384725,-1.3547599664234011,-1.727598891262116,-1.2529137136735249,-1.1604447126645383,-1.0045045175894023,-0.9833295364850921,0,0.0,0
21.058,0.5878757316239697,0.4623393144461103,0.40748788595497704,0.21096370649915433,0.5485859244930812,0.5182074014438254,0.7336514148113504,0.47208208046954964,-1.2464341584571121,-1.22636260503112,-1.2868222060596741,-1.9442092087990748,-1.0214903593819935,-1.1067596001229336,-0.8738365489215388,-1.1128520994763482,0,0.0,0
21.118,0.36696321005743326,0.3869212102274277,0.4685790708057989,0.32736440940739364,0.6048406903530056,0.483765822546332,0.7026600083970856,0.4840307794782435,-1.7303168762769368,-1.3827576511733666,-1.1623369805571349,-1.7077065126763589,-0.9217379076771287,-1.1459313304916015,-0.9303686568611501,-1.0839150694392987,0,0.0,0
21.178,0.37500856068296784,0.4821708707485021,0.520854807164461,0.508809722849842,0.5609273815226806,0.4623188070549983,0.6493253705509456,0.5136931725881902,-1.7168981242665593,-1.2091630614576367,-1.0668761211289206,-1.2587478334042699,-0.9905494910571973,-1.1739438461822218,-1.0129621765421628,-1.024657673181617,0,0.0,0
21.238,0.6371309845810457,0.6235323660132376,0.4701852902735429,0.5858601615394282,0.4556257900680784,0.3987180563220039,0.7463965724108841,0.5630375141579061,-1.1544237898432261,-0.8882721364185729,-1.1896838969831838,-1.0504176037636264,-1.16871184619273,-1.2502268272019934,-0.8534470356627705,-0.9126933816591305,0,0.0,0
21.298000000000002,0.8079663492706657,0.6124075912457356,0.2860603699713819,0.6760151677997367,0.3082341308320711,0.39980154104862936,0.7295213930003689,0.4442113861217936,-0.7332890585591912,-0.909085226225219,-1.5371370332177137,-0.8515655820555482,-1.3879431325086982,-1.2527348440400283,-0.8863772216744854,-1.2366430180828907,0,0.0,0
21.358,0.741775035355494,0.5182414702283483,0.256443980595165,0.6751094857348716,0.28183323334190075,0.651957704930196,0.5274163007287819,0.22018189308243163,-0.8917201958391456,-1.1044073854760377,-1.5801534091519747,-0.862111299145902,-1.4234427063689337,-0.9869448154917029,-1.248314881287108,-1.7059890426444104,0,0.0,0
21.418,0.6499580720165582,0.4077685763966771,0.4349779473477704,0.48513503161307775,0.35077138668673896,0.8880694064506407,0.5198516718687164,0.30886989471833587,-1.0801601453701688,-1.3510205801978918,-1.262803804045449,-1.324470637465206,-1.3181263878148326,-0.6612271240277101,-1.2737952797417726,-1.567738958887715,0,0.0,0
21.478,0.9860705834065678,0.43719057125681243,0.6633080168870787,0.34727518093203597,0.4126776096477266,0.8635008662067983,0.9347233806916232,0.6701474820513903,-0.44272809397893803,-1.321684038615944,-0.8207419189585788,-1.6175043489488319,-1.2194938824038328,-0.6914699475481277,-0.6189038139820927,-0.7822470626420704,0,0.0,0
21.538,1.524826108933081,0.9204042559336787,0.8633947237009137,0.30695238138455055,0.49783409900528075,0.7462554509554021,1.1134072944084552,0.9187743009804749,0.7625546622523052,-0.4248761389471373,-0.427565117061377,-1.711712306200946,-1.0925806084417766,-0.8281838536660211,-0.24589235994134517,-0.13667537786836448,0,0.0,0
21.598,1.7535450325889488,1.2906577534388322,0.854072232727142,0.3631411744227807,0.5173143255147237,0.7031392714553578,0.9498863132539008,0.851216533828599,1.3242277819014672,0.49254064469141307,-0.4431023925563329,-1.5976146698802813,-1.0586747520418929,-0.8799247796517008,-0.5277609847723143,-0.3189411737361099,1,0.125,0
21.658,1.4902621439046562,1.1628062161540227,0.8065761761182105,0.4752551964071534,0.444157898066325,0.6000251688829292,0.809741219000868,0.52692983660337,0.6984184645579393,0.18080886026980494,-0.5267723061861854,-1.322727702165512,-1.1717511425305642,-1.0143272958256047,-0.7445042197513815,-1.118435696598966,0,0.0,0
21.718,1.0737375812262704,0.8593756434772,0.8343917839039782,0.5108357881148544,0.40878611987527225,0.41997022174640497,0.7620037360489371,0.23142131586781797,-0.1719661173700532,-0.4028310249449802,-0.47553268323337533,-1.2273232706094197,-1.224110728023059,-1.2422504887870474,-0.8262778538777088,-1.6549931897799761,0,0.0,0
21.778,0.9927145557667775,1.0858058720593389,0.6698889077031597,0.49620366128366805,0.4989219910040104,0.28630184118164326,0.6526743918844112,0.27780893768192927,-0.3280077445499413,0.02453914131831848,-0.8240742782830771,-1.2617130731871071,-1.0965573216344902,-1.3884219517948475,-1.0119955618939704,-1.5622271454111676,0,0.0,0
21.838,0.9833932548417009,1.3394120389901993,0.5321643921697152,0.5240405379444699,0.5705386221523652,0.3588870484344322,0.5873089191041254,0.4514816016886944,-0.35233279936597367,0.6081567521359872,-1.0567474140231699,-1.1987203004480764,-0.9758666281001797,-1.312550742659723,-1.1131598262371896,-1.1855375040990395,0,0.0,0
21.898,0.8424198264915858,1.1127725869758847,0.7368381467211452,0.6254859770954728,0.49672340469447157,0.520253585795006,0.688196802433611,0.5680859611369883,-0.6596996879830763,0.012742092152819517,-0.6936287461688319,-0.9669406300146913,-1.0999635104808538,-1.1119849068126615,-0.9549329938493982,-0.9049986719210029,0,0.0,0
21.958,0.6737878253697642,0.5707887320709835,0.7380318815616911,0.6926145160136246,0.37728809537545793,0.5500232525276046,0.7932592345576448,0.4902370702485888,-1.0436512315575417,-1.1156314413478534,-0.6984764223321198,-0.8005288074550858,-1.2773750107198163,-1.068665747838989,-0.7714382424623346,-1.1112556245163463,0,0.0,0
22.018,0.5212747840109202,0.2988918667768913,0.43776645715960216,0.6019940407135973,0.36397570664053763,0.4354454624713861,0.8805563399815982,0.2993742687693634,-1.3569323676329557,-1.5631184474055668,-1.3010620970889346,-1.038240761575641,-1.2948959135426708,-1.2134468591557146,-0.6296486470633869,-1.5114470457902225,0,0.0,0
22.078,0.5157688063318786,0.3733329419066445,0.2864978746646915,0.4533788893064318,0.4929534440904193,0.3352703074845658,0.8843640828373481,0.3284990737833833,-1.3656745692886225,-1.4261919816623754,-1.5212420203296315,-1.3724230022445187,-1.1112344532609006,-1.3280270154698532,-0.6278520733978968,-1.454419894769207,0,0.0,0
22.137999999999998,0.564717046384481,0.5484982233423618,0.450546435576252,0.4906843871568266,0.5825306368770979,0.3458598937769822,0.7437003108530288,0.4161647629800541,-1.2582862892867797,-1.0618422230257636,-1.2288863216761425,-1.2905772481868485,-0.9591268222901759,-1.3180808505481652,-0.8682060346451758,-1.2361232646300067,0,0.0,0
22.198,0.5980848421363327,0.6391961818173414,0.5245353938332814,0.5886938505090511,0.5027906693477856,0.5516131963376081,0.9200995374604733,0.4792916510931467,-1.1886700889672137,-0.847765877171494,-1.058228382376916,-1.0466430990733586,-1.0965706461562532,-1.0943426950824053,-0.6214693072303609,-1.1030326032472755,0,0.0,0
22.258,0.7955658126567229,0.6880157562179475,0.49272180684196704,0.5358396688645404,0.42451144262904805,0.6948068669657887,1.0394891578418815,0.6275646626665278,-0.7992104052665647,-0.7487652895911783,-1.117619960194365,-1.193655714685839,-1.2139540861888873,-0.8923814522554842,-0.4005652526598282,-0.7874988920793373,0,0.0,0
22.318,0.957545320429291,0.7115489987312877,0.5929562355076963,0.33942685567990055,0.7427811875129027,0.612832772897906,0.6997725940552791,0.6394887610082123,-0.4021368939039025,-0.6967044240275085,-0.9448549059893244,-1.7049620245468278,-0.7931660490716209,-1.001070859818867,-1.0953812680770583,-0.7587858930912321,0,0.0,0
22.378,0.9222793042626831,0.6764852165423768,0.6780431301397458,0.1687277502897224,0.9032234634539182,0.5500417334611807,0.29299236008329804,0.44418376058872727,-0.4791225664179317,-0.7734864715600889,-0.768521820662306,-2.059147899579727,-0.4804139687618128,-1.0716192191652114,-1.6181617608014693,-1.2249417551151593,0,0.0,0
