t_center,z_mean_emg1,z_mean_emg2,z_mean_emg3,z_mean_emg4,z_mean_emg5,z_mean_emg6,z_mean_emg7,z_mean_emg8,avg,consensus
0.10200000000000001,-1.7105363039723913,-1.4811365592117873,-2.6629522251704825,-2.1811310351744964,-2.476764840068681,-1.886909042691758,-2.338970323298453,-1.922881901825676,0.0,0
0.162,-1.4205106194363013,-1.215089821253438,-1.645254481752399,-0.7818886872601366,-0.626879052485036,0.7670186383861783,-0.7232270652965774,-0.5461939580402769,0.0,0
0.22200000000000003,-0.643216626020429,-0.3111823643144252,-0.39250993708838,0.41710410229543093,0.3108843086749606,2.142038055532398,0.37825104951949173,-0.08732830592215025,0.0,0
0.28200000000000003,-0.09411718332358987,0.27424540860449603,-0.22286908095391122,-0.28340539775830803,-1.3031457590856403,0.2338935067123574,-0.5179081055922982,-1.0779270072966731,0.0,0
0.34199999999999997,-0.5462767750978457,-0.23298395506735559,-0.35492648204832156,-1.1341621797268466,-2.5935114649976834,-1.6841104425868074,-1.6462203643905113,-1.5851188666742395,0.0,0
0.402,-1.0279951946583603,-1.0519745696665326,0.045667101568926206,-1.160322675109111,-2.3917562286528575,-1.9506018675247239,-1.23687203133497,-1.4419624706720453,0.0,0
0.46199999999999997,-1.035572555521328,-1.2335818048154608,-0.026143614562660372,-1.1593191862582088,-1.7450513230143312,-1.455268341097759,0.03547319576596961,-1.220674279997717,0.0,0
0.522,-1.1146409819419782,-1.2458937248406352,-0.33248671241546585,-1.0761949456147277,-0.9536583992165154,-1.0809960812475565,0.08416815030038854,-0.8311312290393879,0.0,0
0.5820000000000001,-0.8406319275420414,-1.3168927447148848,-0.0647266808494206,-0.9586740231089954,-0.33714789716350957,-0.533876756544479,-0.28191445574471957,0.6496793993831858,0.0,0
0.6419999999999999,0.15412815208059852,-0.2272201093445084,0.7099085585358959,-0.4527568247316091,0.26124144023348367,0.35301649901642085,0.9354028201686493,2.1732017942608075,0.0,0
0.702,0.5652373284986801,0.5519667503031619,0.45637250797709944,-0.2845368601573974,-0.23263086687263787,-0.2825452264291053,1.195070702938255,1.2867715694611925,0.0,0
0.762,0.08465471139631896,-0.45286479917861805,-0.6591888943195607,-0.9398217054250947,-1.964587275121626,-1.733418319188438,-0.3851405543271746,-0.5646485672606648,0.0,0
0.8220000000000001,-0.044411657122250627,-1.17062805281586,-0.8728549073872457,-1.3792051096002147,-2.8800716986287846,-1.887626739598381,-1.2353011281815287,-1.261491660073592,0.0,0
0.882,-0.06345110365397615,-0.46092196305180416,-0.9755396515945586,-1.3798368423925893,-2.644774549422174,-1.4190211922068923,-0.8655488860140063,-1.2893099201255571,0.0,0
0.942,-0.5943490950527377,-0.030542510365746272,-1.0899564472071444,-0.9793759191096884,-1.7958453881249612,-0.8433055941985125,-0.20969436921512952,-1.3245608006820218,0.0,0
1.002,-1.1738616150384267,-0.7958083066496714,-1.0563431212036465,-0.40795879362034976,-0.6227700189546174,-0.5673186115595386,-0.710581683376291,-1.17709231468805,0.0,0
1.0619999999999998,-1.3654540916680205,-1.5010839284463013,-1.1746176952759706,0.026956978392656043,0.424131672706441,-0.6255716721069248,-1.67324490373868,-0.911604303940997,0.0,0
1.1219999999999999,-1.4102305760744505,-1.4822704011266197,-1.051587676326719,-0.10943307226077537,0.5546686469712446,-0.6552494489723558,-1.367882637575817,-0.6268140804499804,0.0,0
1.182,-1.2244531845097497,-0.9752684528246133,-0.2648983996889988,-0.10419154062939123,0.6325320451987488,-0.9851494558169049,-0.7667642896839575,-0.31839854257375716,0.0,0
1.242,0.13884988632069226,0.11443505031649902,0.6256647648784263,0.6457554995279144,1.208764993125417,-0.8262782494023706,-0.005747988955268457,0.6002268744887475,0.0,0
1.302,1.7577642710094838,0.7075061937143864,0.34725864818052193,1.1959497582663743,1.3533298589628888,0.1250660407187902,1.0610412240829772,1.3887697188809127,0.0,0
1.362,1.5027912926422304,-0.014399647993476566,-0.6145215688394317,0.8793382314220173,0.6714541996176843,0.2889474943732646,0.7213344372190956,0.5923588334427429,0.0,0
1.4220000000000002,0.121724815830479,-0.5389148051321805,-0.7334591301426244,0.11799642678695593,-0.42205336248307646,-0.7272995652897206,-0.8552860514437294,-0.40779120053236,0.0,0
1.482,-0.4711091243330134,0.18026917479246599,-0.15616542756699095,0.0680602785782865,-0.21366956821681174,-1.2086668665747415,-1.724597393756856,-0.10254324793287556,0.0,0
1.542,-0.289456641651438,0.7337269773049638,-0.4523344347568705,0.16649090878499115,0.21079362508179622,-1.107459947578698,-1.4785071374697913,0.4118935839803389,0.0,0
1.6019999999999999,0.00017131231461813,0.059852516751726315,-1.387759476771451,-0.30692236390953204,-1.0116845341904483,-1.0123743260462517,-0.6338758703630566,-0.2164714474933945,0.0,0
1.662,0.13714493948786335,-0.9928940447956944,-1.706764862755416,-1.088229329449746,-1.958521068280505,-0.5217457077001922,0.16778837231889546,-1.480541601508902,0.0,0
1.722,-0.26602199428917933,-0.9800507120880958,-1.135849921112005,-1.2004446945102731,-1.3134474813807582,0.37243419834598307,0.31291222694373494,-1.9950244686665168,0.0,0
1.782,-0.5554242635240837,0.3882871203770783,0.7053831232188036,0.3267134604146115,-0.13645304056350632,1.0114854282482395,-0.061345882667127434,-1.1588600427455908,0.0,0
1.842,0.1295669440998872,1.525452549294342,2.0213124051314177,1.882446806367809,2.1081725226458716,1.4681377333262466,0.18065929581061013,0.10312592145086652,0.0,0
1.9020000000000001,0.17848568348932256,1.1923592788278516,1.3403713645323698,1.9166590074355263,3.5946838468721456,1.241684236975855,0.7784575742431422,0.384881414343146,0.0,0
1.962,-0.8089830836622368,0.31391829216019423,0.276552950037228,0.9668790499119897,2.2215129132506575,-0.269167701749397,0.2571152735216299,-0.19894242449740754,0.0,0
2.0220000000000002,-1.0414030418487499,0.2738128072672216,-0.46696000961114154,-0.1929055317881271,0.2576291206245677,-0.19312125589107623,-0.808596743480431,-0.5468734593402776,0.0,0
2.082,-0.6952025211815963,0.4934060037699892,-0.4715219451723495,-0.3730203494412551,-0.32469646770828614,1.4985439775383023,-0.7463165751416412,-0.16637409246811632,0.0,0
2.1420000000000003,-1.0709074286251754,0.26632331485324684,0.15845747149898223,-0.03203069616286983,-0.37380507461054796,0.864033044817278,-0.125045360274374,0.13491920343585517,0.0,0
2.202,-1.67522075352458,-0.001936599554841605,0.2065950603435975,-0.6388070689296397,-0.7411181656588929,-0.63238654917039,-0.19890449315891637,-0.03069035731132981,0.0,0
2.262,-1.4153149463397758,-0.13810244165806007,0.05342660116823095,-1.104361545978717,-0.6272258691484592,-0.0673260311054759,-0.6415920050427858,0.007993256805238684,0.0,0
2.322,-0.509747389278536,-0.30385522986174834,0.21434226733972017,-0.40429099540614416,-0.050262976728233044,0.6287577570356094,-0.6393870492510938,0.24383925694897876,0.0,0
2.3819999999999997,0.03586814022135188,-0.3576222807196178,0.5645662828070243,1.096404351902298,0.9764403747473936,0.07832284688490586,0.03786317648074445,0.33287864067807926,0.0,0
2.442,-0.37037176517373865,-0.5644645937256011,0.45343375976102723,1.5437087009073058,0.8923816344997747,-0.852237099898914,-0.05437581757096307,-0.277524121491515,0.0,0
2.502,-0.6600304129793384,-0.852770271719426,-0.28665108609785167,0.3916764755694418,-0.379406076419921,-0.9927059264541152,-1.2268513120328401,-1.0602425884029674,0.0,0
2.5620000000000003,0.3338439199647027,-0.5664080508266645,-0.7367548796930791,-0.45497854490098266,-0.1462581900457137,-0.14083185775588802,-2.0771317176938697,-0.8137330830327268,0.0,0
2.622,1.0068753260186518,-0.0697922294129464,-0.775554721577944,-0.6877103369706948,0.6345798001289085,0.4311193543263678,-1.9456174409643447,-0.43904334915028675,0.0,0
2.682,0.6293731859806849,-0.37732167758881224,-0.4337945798240604,-1.104976613318575,0.07505160558499006,0.5490045331070407,-1.17546283579673,-0.7214009143439015,0.0,0
2.742,0.4297208060927811,-1.0236268334311067,0.06987321478883861,-1.4754715350792298,-0.7630206623327133,0.5723079969336698,-0.3757207554632929,-0.5275388669016569,0.0,0
2.802,0.28506507196369985,-0.7907545607604294,-0.15414058573330994,-1.0714479982006742,-0.2444839195179109,0.39960282539735464,-0.06700738104070393,0.3862398332984089,0.0,0
2.862,0.433952075489263,-0.10913094885680637,-0.7425119519494546,-0.14056636032271302,1.6761875136115478,1.4346784975312028,-0.005194515699903877,0.990556825548646,0.0,0
2.9219999999999997,1.0266182335360672,0.46523975590446115,-0.13176852690329027,1.1368334202827486,4.161494087931284,3.9179417033185024,1.1935324088588957,1.6997926157356036,0.0,0
2.982,1.897412794265655,1.0005078555275386,0.8264574076461567,1.8130762991270528,5.376560570199988,5.483214634357522,2.458485692408027,2.4257245576218933,0.0,0
3.042,1.7168534062030867,0.8381360481240255,0.3472745643622783,0.8137976450678885,3.3123236794624606,3.4935615795911246,1.0524146978275033,1.0954500896981472,0.0,0
3.1020000000000003,-0.03603122381199281,-0.1374524665066376,-1.1278615857688443,-0.8834282270563536,0.22342566864824906,0.4382960628352204,-0.7992188040603606,-0.7430237582823764,0.0,0
3.162,-0.8650197319911737,-1.0404923538427022,-2.033581357722121,-1.8814930170301754,-0.8987450315458253,-0.33465020298992093,-0.7838655005447089,-0.6848314270323442,0.0,0
3.222,-0.3063377745704809,-1.4064075059720684,-2.014960930948825,-1.9296916634974952,-0.7190924398283887,-0.06758574059590379,-0.05875823252046158,-0.06691952816167678,0.0,0
3.282,-0.12283048129548052,-1.4448441983122553,-1.60164785387201,-1.1872110148124186,0.3284123674235938,0.6524702115068857,0.3384168455272872,-0.4382654377561193,0.0,0
3.3419999999999996,-0.5024080856007643,-1.396507818585121,-0.9538633847391615,0.2446421064184284,2.2338267979298183,1.4447161682046292,0.24447930613710045,-1.0632280556388034,0.0,0
3.402,-0.6863179581777527,-1.1324999235607975,-0.978242184170001,0.8127680927736861,2.2259586965169453,0.7480193734578924,-0.33587124963718734,-1.096278030469117,0.0,0
3.4619999999999997,-0.8044423966725587,-0.5792311118793485,-1.4352861683112514,-0.08875023344268025,0.3285950032458856,-0.7206574380324507,-0.6822710155633591,-0.5811943564420294,0.0,0
3.5220000000000002,-1.1076216073873215,-0.14827433857492386,0.32916505078871955,-0.5240120416514747,-0.075100452155233,-0.9304584642766004,1.1449467114414194,0.15387493306008881,0.0,0
3.582,-1.2231848361039568,0.28329378917601555,3.944868309494772,0.5450306248189967,0.407469769635602,-0.009678940042760958,2.7160038975993768,0.12080349639468134,0.0,0
3.6420000000000003,-0.426987154680539,1.3958473076546207,6.205240442689738,1.6717067980632236,-0.5833425903864532,0.3263781397833664,1.2419358935378824,-0.4268795630508362,0.0,0
3.702,1.160612981517763,2.6682845614843624,6.216894425822635,1.3368034222956562,-1.6894033960876704,0.08728902371696884,0.3642414461220374,-0.3185169243433161,0.0,0
3.762,3.0125048458697763,3.2718794208598276,4.601717253605415,0.5646900238549275,-0.20345629608302207,0.9603557599766033,2.463524880553459,1.5849857153178082,0.0,0
3.822,3.4275114250072316,2.737679134969593,2.9111196546477363,0.8590015021028755,3.219529625952602,2.5776110899708846,2.794116473147632,3.9828066349778566,2.8136719425970513,1
3.8819999999999997,2.4111065095301973,2.8493478257954035,4.640724114641014,3.3401760063065944,7.200295590824557,5.0929220442273175,0.856693944291051,4.096347297559004,3.8109516666468926,1
3.942,3.5108564096631376,4.769975401317375,8.834927451525958,6.390290132476533,10.626951871811878,8.9745291829349,2.2850179266734987,3.2564555741408117,6.0811254938180115,1
4.002000000000001,5.82224580041591,6.040190849130181,9.99165096313813,5.788814314381276,8.474213862964403,9.145794071094883,8.110307177857386,4.706839938478021,7.2600071221825235,1
4.061999999999999,5.562808594911346,5.5163199851332685,7.9996773625196225,3.177723184128741,3.5878087069144784,5.755850540025741,12.5672559563056,7.177375967808396,6.418102537218399,1
4.122,3.3711294109406835,3.519427898043124,3.718888729297563,1.5020151238983148,1.3354844876070266,2.023708017685445,10.632178347154307,6.672015855930147,4.096855983819577,1
4.182,2.643137678586132,2.580952444590616,0.2215218477580748,1.4164637637431348,0.7763292052318055,-1.0034626565107223,7.095019009877061,4.210212120576963,0.0,0
4.242,3.3317671697957674,3.589172564598131,2.924114017856617,3.4566782889594356,1.587510308800501,-1.0376765231299936,5.626768901959141,3.319743562685955,2.8497597864406945,1
4.302,2.596420474342216,3.153150122173782,7.773064874153118,4.391617295754368,1.4277330653762244,-0.3033492152533959,3.539270039378438,2.5577426639000396,3.1419561649780987,1
4.362,1.4383835389108608,1.2937629997762574,7.181808036782616,2.1163783382987957,0.02420697130646031,-0.5826350005881215,1.7236411447695337,0.5689626371801447,0.0,0
4.422000000000001,2.0891222394325664,1.0279305010494708,3.8742192270106934,-0.02170488501349743,-0.20169366652219556,-0.7870632258317559,2.2083537209900714,0.012452643146638909,0.0,0
4.481999999999999,3.828647889907218,3.0752667340257225,4.045098618628023,0.5095031348963012,0.9070910591842348,-0.49587504643330016,3.69180813242658,1.6023142693237322,0.0,0
4.542,3.8723168300100976,4.9624936274029805,6.049090761420486,1.9510176913452932,2.1027595257257747,0.37943258621993176,3.7576346245974173,2.435893833645322,3.188829935045913,1
4.602,1.0820808601082736,4.226164076048434,4.6829534317424235,1.5943902914585502,2.603299790183948,1.9031412581747664,3.682051891920768,1.6470193536368771,0.0,0
4.662,-0.9918373931715928,2.00287538521276,1.2206684694457928,0.27042129595699804,1.4181730661325433,2.6455009520277026,3.844898045816158,0.8218421561091144,0.0,0
4.7219999999999995,-0.6007101050994029,0.27744133956910355,-0.12072490199947811,0.39780291128928597,-0.28089993694036564,1.3787010713652226,2.292880554463872,0.9510055099611018,0.0,0
4.782,0.5175044438514921,-0.44918399567324263,0.4418798294477993,1.0504759835515773,-0.4420049775725514,1.0077453190633077,1.125125635096025,1.871826413575944,0.0,0
4.8420000000000005,1.739343746920152,0.1262309727473791,1.452720182026327,0.44722103453866374,0.0011396620043154597,2.425222132501569,0.3173173170594205,1.7749037805628864,0.0,0
4.902,3.045441805784367,1.8350905055353632,2.524132049665924,-0.32908368060462684,0.11756992864970485,2.181571329883511,-0.6001466029372241,1.218841963322657,0.0,0
4.962,3.1214995460348063,2.690133724118992,3.94339658981503,-0.12653204754622058,-0.5942417759469035,0.09840036689088068,-0.8580900476894114,1.0119097116327298,0.0,0
5.022,2.470599188060497,1.9626791215852728,4.609610914758571,0.18574374665807714,-1.1926353792803017,-0.2681601668807779,-1.7010265019651063,-0.13705565122155666,0.0,0
5.082,1.8157657911574085,0.8401864542967684,4.167280830337059,1.293069048931612,-0.27012503801043075,0.9535941211447797,-2.282877584747608,-1.473023139508915,0.0,0
5.1419999999999995,0.4456887082493159,-0.3897239363959448,2.737181400517175,2.184480293545996,0.19368686641936064,0.6712659503890194,-1.309090646760138,-1.845919985934238,0.0,0
5.202,0.6103414117540419,0.07485173601385502,1.3418534026952162,1.0955107859639666,-0.5447032338615889,-0.6073126375301673,-0.3339895505213885,-1.439181144275639,0.0,0
5.2620000000000005,2.54845986642129,3.6816742899878636,2.475473633830614,0.24463347725003884,-0.4281194069901438,-0.9959576705972851,0.043093180753684124,-0.16069225144610633,0.0,0
5.322,4.445695517869502,7.132213732468839,6.2067778783878405,1.8104308276191283,0.7801559329629396,0.037777705550842845,1.7228107586109793,2.391681594607449,0.0,0
5.382,7.44508900705302,8.36882176928069,9.699824337431972,4.476341932399089,1.9324668864575827,1.586055190691236,3.6147096013732543,4.698468363094384,5.227722135972654,1
5.442,7.32248162373039,6.557867458633712,8.393791736551332,4.684593547404886,2.754617520113838,2.4248746906202046,3.8821835304951797,3.959385676311412,4.997474472982619,1
5.502000000000001,3.44070564642132,3.644212948967839,5.4386602384384455,3.6825962547468714,2.7171256538282886,2.066642967551437,3.728266769239269,2.2302548358683043,3.368558164382722,1
5.561999999999999,2.5826467925951317,3.456200926474869,5.711184836873102,3.258747520202892,1.630842257849914,1.2521985159944562,4.249453552913092,2.288172296686232,3.053680837448711,1
5.622,6.8306590711381645,6.661896444065458,8.029661160348853,3.2342301465209666,1.7576692435451367,2.3761991732537515,6.036477169824732,4.847777776039129,4.971821273092024,1
5.682,10.130867528392878,9.234056980307466,8.37030792724108,3.9804075945586064,3.4005179008305446,4.379204193982317,9.042248791993318,9.437199953070541,7.246851358797095,1
5.742,6.744571872083299,7.533073711098512,4.359408212023583,4.255963009777681,3.8885741332463652,4.346785368668723,9.784240200059388,9.68969126781392,6.325288471846434,1
5.802,1.7430894158552723,4.851718411800355,2.829539967810341,3.7132972291977904,2.73654183687032,2.969547266633771,6.711909340755299,5.440415022769604,3.874507311461594,1
5.862,0.08031851799299056,2.8827590514863086,5.199523787540552,2.369994753768074,1.4067181862092735,1.8357019404010402,5.768709834398532,3.6697156185380746,0.0,0
5.922000000000001,0.7000432634119699,1.3657991163738215,4.526503746240952,0.8527053242727387,-0.18565951253891985,1.4990935075927847,10.426517078719986,5.798682109288747,0.0,0
5.981999999999999,1.6827821460155319,0.9297508672812143,1.471822998579076,-0.017782185976544383,-1.4547581308497686,1.4896350989033105,12.922085091545986,7.607968486666048,0.0,0
6.042,1.939743626488587,1.6408722935020077,1.54873527338926,0.07856220365168405,-0.7770343678546778,1.9689907545125276,8.394373229437887,5.736311894714841,0.0,0
6.102,2.6466837707807582,3.4047294226169664,4.17374165861431,0.7808633636217022,0.28253175521583057,2.726276497915686,5.600035562614397,3.895231826607897,2.9387617322484436,1
6.162,3.334161398243779,4.862808853083867,4.225019867769724,0.5136321492622522,0.13035567253539246,1.5741530736782499,7.337230653934423,3.3794132746784427,0.0,0
6.2219999999999995,2.397887368489387,3.914586470916388,1.9234525680531174,-0.6808261646591164,0.40263960818330286,-0.5946747102221076,7.570126986764351,3.2077641032517525,0.0,0
6.282,1.2617850906765673,1.9946158231113404,2.0804486843333985,-1.0199639489429304,0.5814441268785758,-1.2266053486957287,5.58086049788765,3.8485212766099792,0.0,0
6.3420000000000005,0.5119724071168746,1.3090497558029859,4.113803541877748,0.09931301237546776,-0.3300162161450341,-0.014786686896279008,4.030673596046451,3.0495858738670116,0.0,0
6.402,0.16847438711279464,1.2041977619621915,5.044123277549897,1.7993151947977033,0.2019335977825322,2.230742311550682,4.413973374508598,1.8506957180124937,0.0,0
6.462,-0.09897369841033164,1.0916256048487867,5.547805701760564,3.029955361607301,1.3131838671100102,2.3454700882298174,3.9389070604643837,1.2750008602968708,0.0,0
6.522,-0.3196093096647711,1.697626970168521,5.153331525945,2.6603128491847365,0.8278323237427566,0.20125642375921712,3.488316315513108,1.016900639897599,0.0,0
6.582,-0.29271897819257064,3.085561205085868,3.471902839960874,0.870539500775319,-0.5564033743175943,-1.2535311900080752,6.095437152307906,2.288290785144798,0.0,0
6.6419999999999995,-0.02075538162387895,3.3029530644348966,2.8913598727009013,0.48142445552893953,-1.1803814257715035,-1.417259551365966,6.576125411252683,3.0178793052084063,0.0,0
6.702,0.3942502770564013,2.3633502525046723,2.9670743653198737,1.2611569580789859,-0.3046210916974337,-0.2239451835024242,3.6159570416804954,2.543828172163644,0.0,0
6.7620000000000005,0.323606762995015,1.5446258982928278,2.2361470158704497,0.8169344742001982,0.2502664930300355,0.9555480126638852,2.3623303260754427,2.599479240792752,0.0,0
6.822,-0.23140790005973808,0.2339191071230858,1.3563789009159664,0.5782322703898778,0.33246193735072044,1.4211387591104163,2.27092951976509,1.555747125541214,0.0,0
6.882,-0.8204760475314449,-0.7236658841296516,0.3453382736282,0.9457859430054691,0.8175350604215175,1.8128735398224753,1.061080468742053,-0.4128200940200529,0.0,0
6.942,-0.5567923259434685,0.35662330176685314,0.41587806468160765,1.1429452146805128,1.7616618613074297,2.290207083866361,0.04114547987601908,-0.8390198151390965,0.0,0
7.002000000000001,0.13555777293033724,2.001512188128402,1.3084684365608759,0.752631642942132,2.407960556990577,3.317512674951194,1.4978335403700864,0.35048193859761817,0.0,0
7.061999999999999,-0.23910423191019836,1.4676849709175308,2.1222887992851587,0.38343653594197225,1.118767345733969,3.492701310110991,4.097443996079097,0.9648935715913046,0.0,0
7.122,-0.7148617519607795,-0.10964781966997167,3.3875447828358887,1.279050923441243,-0.42071632347699034,1.3441339414919804,3.4890619112922843,0.36688744632271203,0.0,0
7.182,-0.2346769507640063,-0.34766205642221837,3.686182014834247,2.1786052879585394,-0.16950191285683291,-0.009403103778428531,1.596649425730697,0.2624451660705733,0.0,0
7.242,0.11999887059749222,0.21140328510807016,3.409097714121671,3.0257964411325724,2.359570188654756,1.7475478162311058,1.9337772630899333,0.5664514476539692,0.0,0
7.302,-0.276190085900683,-0.062236300479560504,2.2527812613265072,2.9495410620378197,3.7882620178709505,1.9680737135859765,1.3777653617586314,-0.39994348718677236,0.0,0
7.362,-0.47367319453246953,-0.8834604084142016,0.6354834775228418,1.3610929727691554,1.5130594598496245,0.2820692274999796,-0.3728889792971353,-1.5410955769216839,0.0,0
7.422000000000001,0.21440791094638512,-0.9932010464471897,0.5547384627221077,0.5205743429351972,-0.8175577151301633,0.1132797575749745,-0.4595656884620472,-1.0508258165136914,0.0,0
7.481999999999999,0.39855267586209625,-0.9047095844656733,0.2101587882614917,-0.2760477749648562,-1.6912386476945482,-0.5314916682830213,-0.731323396713992,-0.1871662914398681,0.0,0
7.542,-0.5378553308018407,-1.3632200740461842,-1.0694070634568487,-1.1762236048551518,-1.4467449045424843,-1.7258404433290526,-2.0971043130001803,-0.025964341153320625,0.0,0
7.602,-1.1838248918374228,-1.622768158597473,-1.68652658644067,-0.221929018440149,-0.3174624669026109,-0.7412234402334819,-1.9782389585579174,-0.24194059463598425,0.0,0
7.662,-0.5043738020894432,-0.9772130035509176,-1.3073514430099784,0.9319507645174432,0.056948024577053585,1.3026574939577233,0.39817928473358233,0.4129688175341202,0.0,0
7.7219999999999995,0.5165543347236811,0.0344171143279448,-0.8314039265753719,0.6333024635436962,0.22914323453092708,2.2318776360201906,2.8007921581122805,1.8660373372884056,0.0,0
7.782,0.07574982951724647,0.04315270818965463,-0.7007942123393206,0.025871258468276318,2.028473369572137,2.9307237525898757,2.025222955690332,1.7206704096524768,0.0,0
7.8420000000000005,-1.1440256965261666,-0.7722656993884333,0.3484354703332244,0.3818385604043329,3.8053767887307486,3.4900137733346717,-0.6916404422617108,0.016292444596934175,0.0,0
7.902,-1.3759278926084242,-1.256231018647321,0.8619063421810963,0.6470818517327798,3.205738833986637,1.7795543443459907,-1.4345713995676876,-0.7350296820860786,0.0,0
7.962,-0.8527242085828187,-0.9412776614172603,0.37440441307860306,0.44409087212079973,1.7891842257750319,-0.2556207173705317,-0.5633680677542942,-0.368144198021586,0.0,0
8.022,-0.19797022575277123,0.051325645316604024,1.3827101876295222,0.7395865627607597,0.3837844138577529,-0.48929617715104357,-0.19891891200701248,-0.2949611327148844,0.0,0
8.082,-0.02142362282374906,1.0099967962094085,2.670343636593733,1.6660544613648263,-0.3431384040713019,0.08975527109216724,-0.08204937595778784,0.05930449492436899,0.0,0
8.142,-0.35383671337738964,1.5640043380297968,1.7716789914071114,1.5952098288875616,-0.4720994033281842,0.28994235981708427,0.6439743388614666,1.2299675371365584,0.0,0
8.202,0.8801456942700585,2.974409407466558,0.6676764549675961,-0.033236928329608804,-1.4466052735999222,-0.1078882160511019,0.7962839588036578,1.8160777947818767,0.0,0
8.262,3.4918183717771183,5.575234843786082,2.042110006117116,-0.2351068413221491,-1.2366092245988782,-0.013895253054322099,0.6962114675895927,1.6331068279218532,0.0,0
8.322,4.339290884316918,6.577122461191124,4.243727121906503,1.5223253027922146,1.419597300449109,1.480801673906166,0.9358228349751346,1.1317098171391498,0.0,0
8.382,2.080218080754098,3.7866767434861663,3.7514023997908903,1.7696421214360691,3.26128900003131,2.674608811150035,0.5032091786132578,0.4424218696787463,0.0,0
8.442,-0.5551136860790833,0.1254354174647791,2.0415642417398625,0.9838100313252244,3.428674871694302,3.4698158930576923,2.03320846423029,0.7186416950969488,0.0,0
8.501999999999999,0.22819071848455152,0.33125931429320943,2.6485144919314116,2.8447109075994645,2.679544687030653,4.037238077374815,4.481153507070733,1.5018625895360975,0.0,0
8.562000000000001,4.626723546220419,5.034988931108366,5.406407146982141,4.844298906693287,0.8552926273513338,2.97128288340357,2.4577610156514926,1.841446389168972,3.5047751808224477,1
8.622,8.233169060201568,9.015548918575243,8.167791339506469,3.6625374297040723,1.2765055533088636,1.8137567474722953,1.0380387528530777,2.6401523760778036,0.0,0
8.682,8.108901533359477,7.676254632744116,7.613647376272311,1.5871204683192124,2.2647363101954463,0.5843109097211638,5.558892353755032,4.199108284854753,4.699121483652689,1
8.742,6.730390158295922,5.30537796653763,6.1173092693369755,1.2694464156054146,0.21860354753290898,-0.9101941660800934,9.975470532461934,5.986338761017113,0.0,0
8.802,5.690945126889922,6.408128225310654,7.5145604980288985,2.401766778915901,-1.2844791237361028,-0.6209074959884627,10.274452974498125,6.385757062287184,4.596278005775765,1
8.862,4.7728240102181365,7.592920612275166,9.173159131946877,3.3573063130515295,-0.1200605406365693,1.5459806724366356,12.212928950361333,5.982438507937437,5.564687207198817,1
8.922,5.133955170451379,7.848171279250111,10.501826450504504,4.166396478852474,1.1667875231778566,2.739002624835386,18.601116608603082,6.766784730147599,7.115505108227799,1
8.982,5.081993620075424,7.312243201592026,9.28086890425392,2.9511744645111158,0.6516713167647693,1.7021444417402944,17.60709641766417,6.005721746656097,6.324114264157227,1
9.042,4.396541062731436,5.768383620472842,5.887440255621118,0.21379124349534673,-0.38900522567718904,0.13438469224121422,9.50357415328329,4.218401423333868,0.0,0
9.102,3.989892270177247,4.830132692449808,4.85362913748235,-0.37201529274121653,-0.7813108174626721,-0.5182824669757574,5.899464193066437,4.058571687430356,0.0,0
9.161999999999999,3.321619214045022,3.6313904368586734,3.6604924491313073,-0.10156189622542161,-0.45322114325877244,0.10900393356852478,6.621687412435352,4.375699648271193,0.0,0
9.222,1.903244517192233,1.9627669282714135,1.3891939875074446,0.3040350824637235,1.7762798839603466,2.3423321168658715,6.728265544299536,3.3166113352947946,0.0,0
9.282,0.3656522836442914,0.8811933563925626,0.46954439938363746,0.9762047826866188,3.359327982136922,3.58278726119106,4.764144763335524,1.7050166948160568,0.0,0
9.342,0.10681915792045465,-0.04313687812346689,-0.0656118075977581,0.1544869585775621,0.9461385634434727,2.0648546057050967,2.5784073708623496,0.7320962741755058,0.0,0
9.402000000000001,0.1288666507479512,-0.9720724097096091,-1.0425109152540617,-1.4327990415332097,-2.012084617560969,0.812316074984024,2.1031731877806426,0.46955153473888706,0.0,0
9.462,-0.23724853276032234,-0.8250688270965915,-0.9872208596374885,-1.9763734009042775,-2.0326374264086975,0.8723027989175539,1.9011517342268283,0.510615330009351,0.0,0
9.522,-0.5409523492560784,-0.44546530777471705,-0.2318425104725159,-1.459113549197812,-0.8135933128912008,0.5957848763897325,0.390364666446612,-0.5383406412293361,0.0,0
9.582,-0.42822541223356714,-0.7247629617168254,-0.37778188337952806,-0.3648319616373655,-0.026210512436800153,-0.1018943673977269,-0.28795256471375963,-1.3074916359561446,0.0,0
9.642,-0.06605421350575376,-1.2140474925908078,-1.1180296786826838,0.49353691969818664,0.07127167509231454,-0.8351486228068868,-0.7266270056030377,-0.9014356742778186,0.0,0
9.702,0.789822176651302,-0.8976551834712647,-0.9525246475146104,0.31334116130274225,-0.2902713634243691,-1.2378481948279274,-0.6719876567016311,-0.43950653399403133,0.0,0
9.762,1.5184861673436343,-0.08384948395130891,-0.329916014309615,-0.6738884875052958,-0.3009275821338823,-0.5226807822012515,0.1771755622266258,-0.15879194126067597,0.0,0
9.822,1.6831957817775092,0.4713818685851538,-0.3587111290588118,-1.2776434040546063,0.5755014349155626,0.6512453882464302,0.3862384833370534,-0.2533336956966235,0.0,0
9.882,1.0506826946019543,0.6234154404491282,-0.43801040937301927,-1.3900403899955427,1.0096763428869164,0.727016494011662,-0.27305866488004865,-0.9020459566868686,0.0,0
9.942,-0.16922659557298422,0.5099068601054232,0.09642379987349563,-1.151353129732238,0.5128327770570441,0.5529958257215816,-1.3035697262806112,-0.6854701120002445,0.0,0
10.001999999999999,-0.7395938544075702,0.623973192736314,0.8173601355013033,0.09243807168006458,0.5552690595010178,1.270212356894286,-1.0751409902064564,0.18833330884551255,0.0,0
10.062000000000001,-0.46667219040403024,0.1712812290875991,0.9615449084958351,1.5288557206517537,2.5972591361639963,2.732655281528162,0.3449352006666963,0.4130835245603033,0.0,0
10.122,-0.3393546015464748,-0.5282628633652032,0.9761036748348465,1.8990331628887425,5.313620428190441,4.127447827943005,0.8888868306472109,0.5255565506472235,0.0,0
10.182,-0.7090472400656879,-0.53190846034378,1.270661348845833,1.5566395810023563,4.110950787182882,2.7039459224225975,0.14095402577866403,0.4556507760796511,0.0,0
10.242,-0.5261206882297872,-0.5257532093460952,0.6904315952316088,1.4879633415906781,2.140877207764379,1.0134262317838971,0.1593157747121409,0.07783848472564334,0.0,0
10.302,0.2934764688988401,-0.7310677446198849,-0.024028832313725334,1.9029414386496455,2.43268061808516,1.9348489238077364,0.911946794838672,-0.17342182037320183,0.0,0
10.362,-0.0343634762764242,-0.6205256288817053,-0.46508115490064167,1.1727997830339412,1.0085989617734301,1.7258261482270711,0.06034078866909315,-0.5662257154480003,0.0,0
10.422,-0.9786120411184335,-0.2874817382546892,-1.0182091139542493,-0.38259235986691215,-0.5425393800693343,0.8979967736972113,-1.0307531312793525,-0.9537474280807251,0.0,0
10.482,-0.9975799628169417,-0.3054359689190547,-0.8738257603933849,-1.007766471925572,-0.14366780546818816,0.5837388257702731,-1.301707246885435,-0.6815756395147717,0.0,0
10.542,-0.8316680965906024,-0.514503960006686,-0.5180282396847736,-0.7097886893028642,0.4718639997202357,-0.334942752703721,-1.5400179978053083,0.2707309361727306,0.0,0
10.602,-0.9672027203317781,-0.930032178735923,-0.7795621743685864,-0.045177909278320105,1.26541255304931,-0.09183011770695747,-0.31095019921602296,0.8873110057689408,0.0,0
10.661999999999999,-0.5522939903551792,-1.0754614720852795,-0.8909056615047168,-0.1427387038202893,2.72272536468536,2.047181176581304,3.7839262423644393,1.3390121671132338,0.0,0
10.722,0.8346910744800863,0.663895737207016,0.5866146601144457,-0.8393857388476499,3.4350245295969053,3.544009539517159,6.412926705968855,2.431267997973641,0.0,0
10.782,2.3399185452914844,4.497756729472436,3.698392853538912,-0.4042852681278795,2.639918291465078,2.174763686931087,6.182897825974103,3.748259264022694,3.109702741070989,1
10.842,2.3359369177403777,6.040348140801064,4.065212774498318,1.2531414726741996,3.210761659904655,1.3247270233690125,7.098707750980378,4.148950764929769,3.684723313112222,1
10.902000000000001,2.314382529454313,5.273216228503634,2.0833469630265014,2.600712299997521,4.98458048361555,3.1749546773074315,6.99838473064813,3.7057828016323846,3.8919200892731833,1
10.962,3.7802877705395077,6.063871071485507,3.891646200856639,2.524470814133499,4.646469679167798,3.832134494557458,4.781612755214077,2.9261406428605423,4.055829178601878,1
11.022,5.185674514030519,8.073176830562973,8.744867056572579,3.5931320612223927,4.74176823592059,3.5129718590933705,5.331036510656909,3.2095217430076484,5.299018601383373,1
11.082,5.1138678134701046,8.148281283492226,11.893605434418435,6.151696322430177,5.848256924279699,3.604568213387319,7.616373502230754,4.290685901991707,6.5834169244625524,1
11.142,5.054272901750972,5.868686958894969,10.49153504894947,5.878259280652196,3.9173964934986483,1.7912034285761955,7.334642618235129,3.3752160094332098,5.463901592498848,1
11.202,6.622105869858845,5.491536786076974,6.127369834120048,3.1552654902585178,0.2090298749929883,-0.5580856246765445,5.5714277515119015,2.3055105867404198,3.615520071110394,1
11.262,6.997164834241453,7.45083055378872,4.282851088714517,1.2823943164994087,-0.9145131448564153,-0.01106115170765968,4.408002794261683,3.805194578290873,0.0,0
11.322,4.97029598566398,7.489981945715653,5.466146321100719,1.6154800780035796,1.5071561830958198,3.5440982608147173,6.698625274434729,7.1121672086621475,4.800493907186418,1
11.382,2.7965983200189535,5.3739574953828635,7.1421323842973825,3.5796616038765037,4.880257360910769,6.414187761327276,9.67797440008795,7.595580730884727,5.932543757098303,1
11.442,2.9741370711179065,3.3109711598290033,6.395453838082356,4.722982388514029,6.566073714823951,5.962566903917377,9.20912983315546,5.441657919122413,5.572871603570311,1
11.501999999999999,4.605294492522803,1.7928921384473195,3.095944243479409,2.7911188660982957,4.120134275439924,2.979944426656449,6.730040898086539,4.310727257443678,3.8032620747718022,1
11.562000000000001,6.189069519618134,3.7148771533028864,4.367174809802005,0.9283928520127644,0.5625228237062428,1.501253986130397,5.8502190227396405,5.016111601492674,0.0,0
11.622,9.036316436703,8.093075628973741,10.095081613459998,2.797212035016788,0.47683651124595433,2.6857420612949396,6.681430608304425,6.937593813207928,5.850411088525847,1
11.682,10.55808434391741,9.800065481060564,12.185404516412845,4.60844229970911,1.3417188145110162,3.5699781090000893,5.802286238044485,6.6659619142272,6.816492714610339,1
11.742,6.883169510065211,6.794855433378505,8.538270086394926,2.9674930172717064,0.8196877267868352,2.6503022724405936,3.3028383208429193,3.3924411894158695,4.41863219457457,1
11.802,2.066523597084164,2.5377082642430095,4.010306968602028,0.6441460618017969,0.4410293400716169,1.7820410956026536,0.695594869168438,-0.011809501728922386,0.0,0
11.862,0.6288713078056755,0.2720909124957189,0.9414977976110873,0.04636295014240357,2.0421718677042593,3.3033325235554325,-0.6532636877510042,-1.5517715344247558,0.0,0
11.922,0.5346010306632895,-0.5577406975934314,-0.5463165324319044,1.1282454291457238,5.511410485757455,5.348548341286118,-0.5528089404830977,-1.8664184833289543,0.0,0
11.982,0.8185409820956847,-0.5206511723000025,-0.8094485387955288,3.1848094318409212,7.6672108015849245,5.746480329199671,0.5816401011678799,-1.451644106749708,0.0,0
12.042,2.1305488427295827,-0.6167016163124622,-1.231818046448957,3.548941322808439,5.362568869286972,3.7698653007070018,0.48387000314910605,-0.769527272013722,0.0,0
12.102,2.0703732630819807,-1.087736131157178,-1.3787015075647178,1.993009245276439,2.050417078305519,1.4565251750197428,-0.6218584279713666,-0.6631379591690502,0.0,0
12.161999999999999,0.36609650921834275,-1.486461032189757,-1.440145521038655,0.19052601408906863,0.49454273805955573,0.7624797675492908,-0.4338200555659221,-1.20534417793707,0.0,0
12.222,-0.4385506384982716,-1.9059679895495056,-2.1379098163959687,-1.538957727352287,-1.3100547894163157,-0.3332307816818437,-0.4268987820095718,-1.687564455956025,0.0,0
12.282,-0.4525961193124246,-2.2482610377025094,-2.836264483865964,-2.4743498318195605,-2.9437960252571824,-1.917705998724288,-1.210184564216793,-1.823909625030758,0.0,0
12.342,-0.5927622306007401,-2.3498881692829827,-2.9944858816970368,-2.6581212063212027,-3.440803724846489,-2.4528569775053852,-1.7293330064636097,-1.897791061028603,0.0,0
12.402000000000001,-0.8412633318496967,-2.3540489397396325,-2.9700724992337997,-2.646635507887746,-3.4896070785689575,-2.5229710991624423,-2.0148749225930964,-1.9865232147934189,0.0,0
12.462,-1.085107692757042,-2.3300645280831236,-2.9522308791902847,-2.6372730764461845,-3.5237978285779037,-2.6019444798077846,-2.2635117112848344,-2.0755286710190277,0.0,0
12.522,-1.3069532623319622,-2.302548408311497,-2.9469205098342095,-2.6387492528618943,-3.5744736335910496,-2.7070224753357555,-2.4962182425503867,-2.1564921379841326,0.0,0
12.582,-1.5085060184249512,-2.2830679070664384,-2.9445004365565715,-2.6427115053678385,-3.6203753545241963,-2.8064290141113637,-2.7012463417632895,-2.2283653204370997,0.0,0
12.642,-1.689188960006023,-2.271572090454123,-2.9432967416387865,-2.6478048437945625,-3.654768763590789,-2.893685360402737,-2.8757617901223966,-2.2914824644236416,0.0,0
12.702,-1.8484391920536307,-2.26607739660893,-2.9435159617826048,-2.654065141641087,-3.6699542496011657,-2.9700309974395456,-3.022962671012443,-2.3460655649137268,0.0,0
12.762,-1.9866420454456932,-2.265373367638531,-2.945172348657138,-2.6609719612952514,-3.663454747004207,-3.036369217137412,-3.145282421550998,-2.39245692233058,0.0,0
12.822,-2.104761754779586,-2.2684266869935237,-2.947925310600104,-2.6680961217490164,-3.6482489852509477,-3.093118756718639,-3.2300239143792484,-2.431455236963872,0.0,0
12.882,-2.204413012957946,-2.2741439440541305,-2.9512537667948107,-2.6752649688986705,-3.636339306000068,-3.141017127855777,-3.2502623057172815,-2.4622199530230953,0.0,0
12.942,-2.2845865838875037,-2.2816221474310336,-2.954789175074215,-2.682329886594543,-3.6293515516888135,-3.1797188638923335,-3.2158909302956222,-2.4779806029831604,0.0,0
13.001999999999999,-2.3310959235126107,-2.290234253131238,-2.958397418542654,-2.689080919722062,-3.6259266398392285,-3.202693696874791,-3.172412196525428,-2.4745181446113316,0.0,0
13.062000000000001,-2.3297861768673926,-2.299592462390943,-2.9621349472276415,-2.6952614984113605,-3.625021854014568,-3.202824893114632,-3.1426403404669334,-2.4616896797010237,0.0,0
13.122,-2.29947778326898,-2.3093071166195376,-2.965952107857366,-2.7007501982225803,-3.6260131193778804,-3.1885504328155214,-3.1255956875982274,-2.450927317177122,0.0,0
13.182,-2.270847978313065,-2.3188785711424837,-2.9695659729989186,-2.7056321685863534,-3.6285452863562675,-3.1747226521611593,-3.1178574061103244,-2.444405536169218,0.0,0
13.242,-2.253026303544724,-2.3279258156040075,-2.9727626942055854,-2.7099928950730234,-3.6322884126594346,-3.1660361831744086,-3.1174785768163478,-2.440974338829881,0.0,0
13.302,-2.2437279058515602,-2.3362871950477633,-2.9755366179325176,-2.7138225979923107,-3.6368446175045523,-3.161453496258316,-3.1228109797193344,-2.4398162434392066,0.0,0
13.362,-2.240322485429509,-2.3439954295737646,-2.9780687169738744,-2.7170352563915494,-3.641759061273452,-3.1597256430380956,-3.1321196444941126,-2.4405134752375313,0.0,0
13.422,-2.2412483481136953,-2.3510670739966253,-2.9804695473301037,-2.719598281480792,-3.646699043213492,-3.160114856121004,-3.1439832649824093,-2.4426867980478373,0.0,0
13.482,-2.245713708963968,-2.3573387487192865,-2.982584923927186,-2.7214146940470627,-3.6515898550054993,-3.162216940253213,-3.1576100011873542,-2.4458692381887017,0.0,0
13.542,-2.253060567117867,-2.3626722773220528,-2.984251516410115,-2.7220477747394582,-3.656411101335761,-3.16568994995618,-3.172413632490245,-2.4496460910736957,0.0,0
13.602,-2.262438508050072,-2.367110052211037,-2.985401103925399,-2.721483081116458,-3.6610506852856166,-3.1701258248789004,-3.187703365309222,-2.4537464450041706,0.0,0
13.661999999999999,-2.272813515171053,-2.3708686431551125,-2.9860209579052683,-2.720560307261607,-3.665300658581901,-3.175054698882464,-3.202668883929256,-2.4580367317446608,0.0,0
13.722,-2.2833364596161263,-2.3739932736955005,-2.986236496782689,-2.719950726810689,-3.6690031300011703,-3.1800910088880787,-3.2166772824869043,-2.4624157318504936,0.0,0
13.782,-2.2937940679853615,-2.3758019986323577,-2.9861963377360694,-2.719656974633024,-3.6722299918532513,-3.185112255375451,-3.2296401746817427,-2.466687647908747,0.0,0
13.842,-2.30419918916339,-2.375745188843062,-2.985998535633984,-2.719485781760224,-3.675120469445575,-3.1900945329918913,-3.241667017478843,-2.4706602800994513,0.0,0
13.902000000000001,-2.31433977393421,-2.3746729932899067,-2.9858024426352294,-2.719369383840394,-3.6777065859925435,-3.194931597568463,-3.2526848013398957,-2.4742541656339263,0.0,0
13.962,-2.3237446542328137,-2.3736737102940437,-2.985668109850606,-2.719375711874692,-3.67990386064217,-3.1994201757215706,-3.2624045839458766,-2.477503082058258,0.0,0
14.022,-2.331962836854751,-2.3729366007534676,-2.985518998740891,-2.719593734324382,-3.6815697034928383,-3.2033703622907304,-3.270556184667047,-2.4804728936565836,0.0,0
14.082,-2.3390918572386723,-2.372440379262607,-2.985383805932026,-2.719940319931769,-3.682574950358291,-3.2068153877722243,-3.277345098047283,-2.4831161165638096,0.0,0
14.142,-2.3454968000778798,-2.3722633319662307,-2.985389259220892,-2.720256493925137,-3.6827949383385348,-3.20989852894825,-3.283162223507406,-2.4853426215149055,0.0,0
14.202,-2.351294532513937,-2.372396010248964,-2.9855686602659293,-2.7204888871557205,-3.6823416445615735,-3.2126665619734993,-3.287764837137583,-2.4871563884651255,0.0,0
14.262,-2.356302935544997,-2.3726923327840885,-2.985777645202528,-2.7207084435487765,-3.681697576279722,-3.2150513432015373,-3.290128811277265,-2.488622961947433,0.0,0
14.322,-2.360178923646939,-2.3729539937537742,-2.9858934323815896,-2.72103604927527,-3.6813041182634634,-3.216929703348498,-3.289946280048335,-2.489651813087859,0.0,0
14.382,-2.3627187627011295,-2.373180292429874,-2.985959631885935,-2.7214368099978308,-3.6811823791722014,-3.2182173707719746,-3.288466179801057,-2.4899488669389953,0.0,0
14.442,-2.3636861138228387,-2.3735141238519315,-2.9860802911895195,-2.7217643253108736,-3.681135449835173,-3.218741063623312,-3.286961152818499,-2.4895980100147357,0.0,0
14.501999999999999,-2.3630674184562586,-2.373999338705857,-2.9862486075912553,-2.721959072417633,-3.6810682980279257,-3.218445433352137,-3.2857906176233556,-2.4891249035818572,0.0,0
14.562000000000001,-2.361705051222948,-2.374537451102983,-2.9863230302700017,-2.722082069869931,-3.681031973300083,-3.217772841714506,-3.2850090869180186,-2.4888146069789365,0.0,0
14.622,-2.360716128516376,-2.374946543622833,-2.986328186183215,-2.7222707619593454,-3.681162566442747,-3.2172814871857205,-3.2848139208657643,-2.4885965325033297,0.0,0
14.682,-2.3603756564203686,-2.3752114623470897,-2.9864217542356037,-2.7225067516166224,-3.681448555346338,-3.217092188069412,-3.285135852506738,-2.488423550023566,0.0,0
14.742,-2.3602545069711933,-2.3754935870353946,-2.986587624287964,-2.7226037391677433,-3.681720330830924,-3.217016852924521,-3.2855867822467584,-2.488367164923257,0.0,0
14.802,-2.3600661544726727,-2.3758602090951486,-2.986660398021776,-2.7225268154326723,-3.6818830420339803,-3.2169336066671375,-3.2859363085408604,-2.4884609059602587,0.0,0
14.862,-2.3598875433416224,-2.3761998109001126,-2.9865704081937245,-2.7224179760904033,-3.681980524440528,-3.216869302146627,-3.2862458632305187,-2.4886517722798183,0.0,0
14.922,-2.360066221284313,-2.3763839113453034,-2.9865148031535456,-2.7224203799558047,-3.682162904513087,-3.216958998807397,-3.2868003421145793,-2.4888212807624104,0.0,0
14.982,-2.3606667269145154,-2.376478705428383,-2.98660709629968,-2.722514050165801,-3.6824671256871695,-3.2172251653026045,-3.2876525042506084,-2.4889290332379095,0.0,0
15.042,-2.361293132827972,-2.376585345942933,-2.9867180204060038,-2.7225868370648985,-3.6827334526157487,-3.2175071355670717,-3.288475009642385,-2.4890589452841505,0.0,0
15.102,-2.361658204412802,-2.376633294234708,-2.986697578645374,-2.7225884486922585,-3.682818796648151,-3.2176881015443857,-3.2890319779375914,-2.489270148599405,0.0,0
15.161999999999999,-2.3618197329711133,-2.3765467642352838,-2.986527813234801,-2.7225132776160366,-3.682751767978623,-3.217789232546737,-3.2893750555620187,-2.489534831260027,0.0,0
15.222,-2.3621395070282474,-2.376491166268839,-2.986457203716695,-2.7224697488538276,-3.6827549098195314,-3.2179529452048836,-3.289809923386233,-2.4897493348283364,0.0,0
15.282,-2.362795701625837,-2.376607684996308,-2.9866131468513846,-2.722519166542686,-3.682940810803227,-3.2182489988540546,-3.2904878674543863,-2.4898626159002717,0.0,0
15.342,-2.3634418568630555,-2.376734358410095,-2.98677229307703,-2.7225768394426857,-3.683118555106089,-3.218544022978809,-3.291104519013412,-2.489956317955882,0.0,0
15.402000000000001,-2.363674911749735,-2.376695236812654,-2.986746411702454,-2.7225859738439557,-3.683109619018319,-3.21868955749174,-3.291300962719374,-2.490087480770135,0.0,0
15.462,-2.3634737188619943,-2.376512476557816,-2.9865502511011823,-2.7225207004410614,-3.682959904976902,-3.218664245797678,-3.2911057858492705,-2.4901949884360643,0.0,0
15.522,-2.363344339266751,-2.3764019943317387,-2.9864237918674026,-2.722464145304348,-3.682876518699031,-3.218641627426193,-3.2909914215290867,-2.4902390070186664,0.0,0
15.582,-2.3637015764904032,-2.3765202611041807,-2.986556083464095,-2.7225203292500093,-3.6829682958151033,-3.2187945902501807,-3.291262367701394,-2.490269695077937,0.0,0
15.642,-2.3641933827134465,-2.3767104150762672,-2.986751785113101,-2.7225982405216365,-3.683081711581101,-3.219002656087097,-3.2915950726612593,-2.4903006914516905,0.0,0
15.702,-2.364297485294323,-2.376738339846046,-2.9867737083662025,-2.722602101355831,-3.6830900244137506,-3.2190519115459217,-3.2916494099135782,-2.490301385642906,0.0,0
15.762,-2.3639786091672192,-2.376575548881231,-2.98660556502279,-2.7225265945581394,-3.6830039987615453,-3.2189227626392896,-3.291447115570618,-2.490240853557457,0.0,0
15.822,-2.3636895315876214,-2.3764291274133305,-2.9864468252443594,-2.7224490309587126,-3.682921633683087,-3.2188058587448167,-3.2912608031197728,-2.490169347705811,0.0,0
15.882,-2.36383400188299,-2.3764985036249677,-2.9865249919862067,-2.722492857536688,-3.682969895296513,-3.218864480565239,-3.291360763366372,-2.490202030608545,0.0,0
15.942,-2.3641181099882416,-2.3766679484917956,-2.9867054611644916,-2.722585707225594,-3.683058778089721,-3.2189765604438585,-3.291528797081557,-2.490296786383691,0.0,0
16.002,-2.3641419291472405,-2.3767197061053054,-2.9867445056959525,-2.7225960316058146,-3.6830560092974474,-3.21898378163098,-3.2915020604991803,-2.4903265813132713,0.0,0
16.062,-2.3639753990925882,-2.3766278927194557,-2.9866400352049634,-2.7225339650776195,-3.682992348011456,-3.218918672656423,-3.2913804466939625,-2.4902644629983204,0.0,0
16.122,-2.363842447959605,-2.376517605994445,-2.986524555109986,-2.7224717211124037,-3.6829430468832505,-3.2188702280070136,-3.2913141289101753,-2.4901860546783623,0.0,0
16.182,-2.3639369484906934,-2.3765455309436616,-2.98656290704222,-2.722500825335239,-3.6829834059507505,-3.2189083757610484,-3.2914025232988426,-2.4902015356897684,0.0,0
16.242,-2.364053801639789,-2.3766358862157064,-2.986662232556217,-2.722560441085015,-3.6830351105735413,-3.218950037775374,-3.2914737951651083,-2.4902713362925835,0.0,0
16.302,-2.3639065435432407,-2.3766084800456215,-2.9866142502537887,-2.7225254365653577,-3.6829807368265732,-3.2188880963169257,-3.2913372474757243,-2.490270659197014,0.0,0
16.362000000000002,-2.3636562271255315,-2.376505103154424,-2.9864814601573246,-2.722439768290252,-3.682882301369185,-3.218788329911827,-3.291133216199434,-2.490211814661251,0.0,0
16.422,-2.363535903766467,-2.3764504693953095,-2.986415030373589,-2.7223983946855324,-3.682836720406962,-3.218740223572756,-3.2910381433646125,-2.4901776655559296,0.0,0
16.482,-2.3634985001520312,-2.376445502580945,-2.9864103050351063,-2.72239735387866,-3.6828302602225733,-3.2187226869468297,-3.291007197854743,-2.4901801262426337,0.0,0
16.542,-2.363280115816665,-2.376365834479633,-2.9863090896729605,-2.7223347055438185,-3.6827526687816863,-3.218632712255968,-3.2908264705338666,-2.490144355434683,0.0,0
16.602,-2.3629237088022848,-2.376210460143374,-2.9861128382737525,-2.7222100691999622,-3.682612621452171,-3.2184906287780866,-3.2905359751734995,-2.490055958430394,0.0,0
16.662,-2.3627191669888377,-2.37610670958635,-2.9859835545125946,-2.722126628452241,-3.682525729945619,-3.218411514352058,-3.290372391513653,-2.4899856059030516,0.0,0
16.722,-2.362633265253707,-2.376052240450677,-2.985916406487757,-2.7220820899742013,-3.6824837989345003,-3.2183801925895845,-3.2903053551165606,-2.489940870232427,0.0,0
16.782,-2.362364847542041,-2.3759291356649457,-2.985761657907336,-2.721982475129798,-3.682375129344029,-3.218274186460101,-3.290086533512684,-2.4898622854071895,0.0,0
16.842,-2.3618538597404157,-2.3757079338937523,-2.9854816600576695,-2.72180278830298,-3.6821734322387765,-3.2180702673083776,-3.2896661291632836,-2.4897289957244375,0.0,0
16.902,-2.3614166081508725,-2.3755153681127603,-2.9852371719421416,-2.7216447492844345,-3.6819978185016526,-3.2178965667999844,-3.2893053184698715,-2.4896094006667466,0.0,0
16.962,-2.3613231179612506,-2.375469400050012,-2.9851789776877236,-2.7216064840209744,-3.6819575630823724,-3.217860327810291,-3.2892286213015303,-2.48957724279823,0.0,0
17.022,-2.3615256851024644,-2.375551708767316,-2.985284070983358,-2.721673766387156,-3.6820355103741726,-3.217942020816103,-3.2893969980798636,-2.489623605149575,0.0,0
17.082,-2.3616789699489757,-2.3756139694217753,-2.9853633386363003,-2.7217243257286037,-3.682094162225617,-3.218003893630724,-3.289524035968888,-2.4896583719450542,0.0,0
17.142,-2.3616733059938424,-2.3756087691897103,-2.9853563791524707,-2.7217190972782475,-3.6820897305592126,-3.218002251575308,-3.2895188709851126,-2.4896525442774795,0.0,0
17.201999999999998,-2.3618731143061518,-2.3756926396320397,-2.98546282963389,-2.721787206888619,-3.6821674021735635,-3.21808244257684,-3.2896838414766854,-2.489701310478244,0.0,0
17.262,-2.3623868851217065,-2.3759129735914315,-2.985742544564957,-2.721967026948701,-3.6823700720342534,-3.2182877107388457,-3.2901079637308146,-2.4898334053242563,0.0,0
17.322,-2.362867919343391,-2.3761213313644998,-2.9860059650041837,-2.72213583567903,-3.682559574959795,-3.2184797350644736,-3.290503190931371,-2.4899586518921266,0.0,0
17.382,-2.363152077634677,-2.3762465651240663,-2.9861631544559946,-2.7222360011454048,-3.68267123601818,-3.218592999748361,-3.290734687592424,-2.4900342573499934,0.0,0
17.442,-2.36296935254895,-2.3761720697805395,-2.9860658487609197,-2.72217188401439,-3.682597721837732,-3.218519837906172,-3.290579204901146,-2.489989361697372,0.0,0
17.502,-2.3616591446387702,-2.3756125762667932,-2.985350626724879,-2.7217084940014957,-3.682075467172966,-3.217996982284138,-3.289489390083735,-2.489649753446142,0.0,0
17.562,-2.358997427885204,-2.3744702825979274,-2.9838931920073413,-2.7207655248080553,-3.6810148505824434,-3.2169352950921706,-3.2872801455064136,-2.4889552170665508,0.0,0
17.622,-2.355302711029435,-2.37288274931691,-2.981868430563877,-2.7194557713361522,-3.67954245937381,-3.215461786539348,-3.2842147835107336,-2.487989326105539,0.0,0
17.682,-2.351028984167986,-2.371046259579398,-2.979526069770037,-2.7179404827076836,-3.6778391130288424,-3.2137574103556013,-3.2806689173505075,-2.4868717306384336,0.0,0
17.742,-2.3464562669420443,-2.3690813695736135,-2.977019797072693,-2.7163190567396396,-3.676016451396104,-3.2119338113251654,-3.276874744253183,-2.485675885329838,0.0,0
17.802,-2.3413513385479265,-2.366887873552251,-2.9742218074674156,-2.7145088200940575,-3.673981533666886,-3.209897977019073,-3.272638767906979,-2.4843408242867144,0.0,0
17.862000000000002,-2.335353708566154,-2.364310925617598,-2.9709345671603535,-2.7123819693814415,-3.671590672532163,-3.2075061379596748,-3.2676618343228667,-2.482772324034513,0.0,0
17.922,-2.3284419734097868,-2.361341352207393,-2.9671463747783036,-2.7099309381825445,-3.6688353509293186,-3.204749753815016,-3.2619261830547175,-2.4809648203864074,0.0,0
17.982,-2.3209713950931774,-2.3581317707846963,-2.96305193743464,-2.7072817168998817,-3.665857205393506,-3.2017705019331064,-3.2557266553331843,-2.479011214997333,0.0,0
18.042,-2.3134229106137787,-2.354888776134531,-2.958914826168644,-2.704604854594838,-3.662847970244945,-3.1987601806187853,-3.249462394384894,-2.477037257854808,0.0,0
18.102,-2.3058513330256187,-2.3516359183537303,-2.9547650904539626,-2.7019197997671776,-3.659829506664527,-3.1957406475619567,-3.243178898508981,-2.4750572925073393,0.0,0
18.162,-2.298114255615661,-2.348312029227524,-2.9505246991670173,-2.699176066864849,-3.656745053827313,-3.192655108354199,-3.236757990950334,-2.4730340993401074,0.0,0
18.222,-2.2904172082030123,-2.3450053936943855,-2.9463062882010704,-2.6964465410728615,-3.653676551778963,-3.189585528659032,-3.2303702518880937,-2.471021416178108,0.0,0
18.282,-2.2833922604316075,-2.341987514274981,-2.942456235818652,-2.6939553502324665,-3.6508759762406533,-3.1867839816933032,-3.2245402521034627,-2.469184488107976,0.0,0
18.342,-2.2779286398063725,-2.339640353834642,-2.9394618414159894,-2.6920178048096184,-3.648697815840046,-3.1846050974101536,-3.2200059805296326,-2.4677557865823316,0.0,0
18.402,-2.2745943622891627,-2.3382078984868637,-2.9376343780891094,-2.6908353168874726,-3.6473685093693575,-3.1832754045569254,-3.2172388478809975,-2.4668838070687467,0.0,0
18.462,-2.273704949837109,-2.337825675564832,-2.9371467505146485,-2.690519766707375,-3.6470138396870966,-3.182920735654213,-3.216500716023957,-2.466651034384999,0.0,0
18.522,-2.275882763552623,-2.338761014392437,-2.938340011261177,-2.6912918342813144,-3.647881908130047,-3.1837892930239438,-3.2183080958111554,-2.4672201692894413,0.0,0
18.582,-2.2822608215753584,-2.3415005941234437,-2.9418350524022276,-2.6935532701372558,-3.6504243855769136,-3.186332932926641,-3.2236013001075015,-2.468887411409152,0.0,0
18.642,-2.294832746387319,-2.3469007606580106,-2.948724375805757,-2.6980109809931747,-3.655436016752646,-3.1913467272481157,-3.234034871653453,-2.4721739440434187,0.0,0
18.701999999999998,-2.3154233870188063,-2.355745383993137,-2.960008008583347,-2.70531203105797,-3.663644261285498,-3.199558438533034,-3.251123264753654,-2.4775568416517992,0.0,0
18.762,-2.3381667844535983,-2.365514857699282,-2.9724714647939283,-2.713376454619151,-3.6727106776771805,-3.2086286725688002,-3.2699981424481748,-2.4835026447405157,0.0,0
18.822,-2.34132401688256,-2.3668713276198123,-2.9742018125333094,-2.7144959728930043,-3.6739692010938327,-3.2098877845819818,-3.2726180515120085,-2.4843282118792147,0.0,0
18.882,-2.3096246997373755,-2.3532551869839806,-2.9568306813041274,-2.7032559044181763,-3.661332453896602,-3.1972458508372164,-3.2463101499540077,-2.4760412515827883,0.0,0
18.942,-2.252132494523831,-2.328559559499867,-2.925324857004713,-2.682870045012504,-3.638413608534247,-3.1743175389179843,-3.1985966147348592,-2.4610111443023235,0.0,0
19.002,-2.179890096748752,-2.297527938843117,-2.885735834148291,-2.6572539669530104,-3.6096147114983563,-3.1455067502010063,-3.1386417719610176,-2.4421248434648746,0.0,0
19.062,-2.0942691475354365,-2.260749584975492,-2.8388153243120104,-2.626894041289996,-3.575482540347305,-3.1113605004549147,-3.067583887181936,-2.419740985343935,0.0,0
19.122,-1.9940734497443418,-2.2177106764442964,-2.78390781210309,-2.591366116927443,-3.5355402413240835,-3.071401737093236,-2.9844302209491818,-2.3935468527485493,0.0,0
19.182,-1.8785024028059958,-2.1680673134120343,-2.720574565248645,-2.550386313844965,-3.4894686628979827,-3.02531117482781,-2.8885163497243282,-2.3633331441471404,0.0,0
19.242,-1.7471528889984322,-2.1116463380211123,-2.648594675379668,-2.5038116935581116,-3.4371071059223213,-2.972928047210052,-2.7795077214977266,-2.3289944739960027,0.0,0
19.302,-1.6003915178640646,-2.048605227965536,-2.568169046942195,-2.451772251539264,-3.378601717361707,-2.914398560536204,-2.657708590084963,-2.290626686518501,0.0,0
19.362000000000002,-1.4398692112124223,-1.9796531345002046,-2.4802023903975887,-2.3948533814189763,-3.3146106262328985,-2.8503811141091764,-2.524489076943426,-2.24866138275283,0.0,0
19.422,-1.2682293799528854,-1.905925530477529,-2.386143302471064,-2.3339923987626787,-3.2461876102984877,-2.7819299190557025,-2.3820429831882772,-2.2037896294294606,0.0,0
19.482,-1.0889567417834585,-1.8289192703824106,-2.2879014179465638,-2.270424934056909,-3.174721828279186,-2.710434705725484,-2.2332623213236404,-2.1569224355311962,0.0,0
19.542,-0.9065959326897711,-1.7505864945397718,-2.187967209356561,-2.205762449162117,-3.102024967796624,-2.637707907523755,-2.0819187437243554,-2.1092479038386815,0.0,0
19.602,-0.7273518046187394,-1.6735924859158937,-2.089740951660224,-2.1422050940924615,-3.0305705498306863,-2.5662240639336797,-1.9331617374079098,-2.0623881665236676,0.0,0
19.662,-0.5597881923679437,-1.6016158241948701,-1.9979156483037954,-2.0827894795377007,-2.9637724872373994,-2.499398493769444,-1.794098539676381,-2.0185820635088914,0.0,0
19.722,-0.41466683507820207,-1.5392791948207145,-1.918388759812415,-2.0313315607983453,-2.905920871940415,-2.4415230559066665,-1.673660456976194,-1.9806430318082642,0.0,0
19.782,-0.30473731384100144,-1.4920591570971216,-1.858147089085678,-1.992352152751658,-2.8620982350411253,-2.3976823748876934,-1.5824285314026758,-1.9519041890281696,0.0,0
19.842,-0.24486441360812314,-1.46634085228525,-1.8253365760703044,-1.9711220905340907,-2.8382303187562314,-2.3738046337632124,-1.5327392399843507,-1.9362516295615178,0.0,0
19.902,-0.25206087154616985,-1.4694320706216362,-1.8292802439648066,-1.9736738416430892,-2.841099131326325,-2.376674634368111,-1.5387116729567207,-1.938132986001313,0.0,0
19.962,-0.34590886336397036,-1.50974429998051,-1.8807091747851905,-2.0069509588171095,-2.878510969588222,-2.414101889098662,-1.6165973307316623,-1.962667618118313,0.0,0
20.022,-0.5535653145673946,-1.5989427480932241,-1.9945054325511666,-2.080582890063305,-2.9612917511510215,-2.496916775022214,-1.7889340963933444,-2.01695514913131,0.0,0
20.082,-0.9204948657014352,-1.7565566685869671,-2.195583755772786,-2.210690731026974,-3.1075656355620835,-2.643250917517118,-2.093453661742659,-2.1128813804766233,0.0,0
20.142,-1.4527159731711174,-1.9851712811058595,-2.487242275953319,-2.399408538984004,-3.3197318380627974,-2.8555045200062197,-2.5351508192442718,-2.2520197168169713,0.0,0
20.201999999999998,-1.857713098618867,-2.1591370729691963,-2.709181738863393,-2.54301458995176,-3.4811810943539894,-3.0170202831834985,-2.871263145930731,-2.3578979507339137,0.0,0
20.262,-1.5920586743579126,-2.045025711933252,-2.5636024499414867,-2.4488174254228197,-3.375279823260975,-2.911075388519904,-2.650793099867578,-2.288448039530361,0.0,0
20.322,-0.5573625850457243,-1.6005738885838705,-1.9965863643272943,-2.0819293468986846,-2.962805496813779,-2.4984311523219076,-1.7920854661310333,-2.017947885387007,0.0,0
20.382,0.9856017912712954,-0.9377963356624196,-1.1510379569332723,-1.5348167744776344,-2.34771358890608,-1.8830858717187422,-0.5115594323355658,-1.6145713616500608,0.0,0
20.442,2.999084472928949,-0.07290849588134131,-0.04764431859308247,-0.820865300180753,-1.5450528636492924,-1.080094510152632,1.1594558108501805,-1.0881874349125518,0.0,0
20.502,4.748053026210126,0.6783577795357963,0.910794904343842,-0.2007066617337113,-0.8478388368677665,-0.38259328379978913,2.610947367911486,-0.6309553241732669,0.0,0
