t_center,rms_emg1,rms_emg2,rms_emg3,rms_emg4,rms_emg5,rms_emg6,rms_emg7,rms_emg8,mean_z_emg1,mean_z_emg2,mean_z_emg3,mean_z_emg4,mean_z_emg5,mean_z_emg6,mean_z_emg7,mean_z_emg8,channel_count,frac_active,global_active
0.10200000000000001,0.2946035085569187,0.4670725521460055,0.26682593776974395,0.8843110529024627,2.7226995507210883,2.3852197125639907,0.46123023468942337,0.36488421666220305,-1.7105363039723913,-1.4811365592117873,-2.6629522251704825,-2.1811310351744964,-2.476764840068681,-1.886909042691758,-2.338970323298453,-1.922881901825676,0,0.0,0
0.162,0.44316434365331164,0.6362571536966208,0.9958940628027907,2.882439962631016,6.663211598378978,6.2735928707477235,1.155311508411247,0.9282825001856057,-1.4205106194363013,-1.215089821253438,-1.645254481752399,-0.7818886872601366,-0.626879052485036,0.7670186383861783,-0.7232270652965774,-0.5461939580402769,1,0.125,0
0.22200000000000003,0.8169321592137451,1.1360513120797255,1.6311147058014954,4.031625263604602,8.022482488335843,7.648114487778214,1.4982197990208432,1.0591875693076407,-0.643216626020429,-0.3111823643144252,-0.39250993708838,0.41710410229543093,0.3108843086749606,2.142038055532398,0.37825104951949173,-0.08732830592215025,1,0.125,0
0.28200000000000003,1.025686637700132,1.3889295725834374,1.7037655075807616,3.291630308599366,5.419315595343157,5.371666653989041,1.1904255405758994,0.6750498809613151,-0.09411718332358987,0.27424540860449603,-0.22286908095391122,-0.28340539775830803,-1.3031457590856403,0.2338935067123574,-0.5179081055922982,-1.0779270072966731,0,0.0,0
0.34199999999999997,0.8467819871388517,1.1522450714682562,1.6211197155184518,2.028122357027672,2.2394691467105954,2.3284170587053827,0.6879703197984628,0.3909455272285203,-0.5462767750978457,-0.23298395506735559,-0.35492648204832156,-1.1341621797268466,-2.5935114649976834,-1.6841104425868074,-1.6462203643905113,-1.5851188666742395,0,0.0,0
0.402,0.6006031186521685,0.7211014745882381,1.8695947077960107,1.9780382868082842,2.6151519433441903,1.8138062085382667,0.8903973680487764,0.4508045998877588,-1.0279951946583603,-1.0519745696665326,0.045667101568926206,-1.160322675109111,-2.3917562286528575,-1.9506018675247239,-1.23687203133497,-1.4419624706720453,0,0.0,0
0.46199999999999997,0.5957909344311734,0.6043048297573163,1.826994798438299,1.9774072568244065,3.9058630806208803,2.5177197571688184,1.3790149909856642,0.5484062334492334,-1.035572555521328,-1.2335818048154608,-0.026143614562660372,-1.1593191862582088,-1.7450513230143312,-1.455268341097759,0.03547319576596961,-1.220674279997717,0,0.0,0
0.522,0.5618267481967678,0.6030934998627963,1.6277528242739268,2.083582212573929,5.446576025629424,3.0057380387825607,1.389146097815754,0.7290274297676028,-1.1146409819419782,-1.2458937248406352,-0.33248671241546585,-1.0761949456147277,-0.9536583992165154,-1.0809960812475565,0.08416815030038854,-0.8311312290393879,0,0.0,0
0.5820000000000001,0.7129333934931661,0.5833689196297496,1.8030779164973216,2.2350188068482204,6.596667783602438,3.850358173624957,1.2375891512286237,1.469539042543647,-0.8406319275420414,-1.3168927447148848,-0.0647266808494206,-0.9586740231089954,-0.33714789716350957,-0.533876756544479,-0.28191445574471957,0.6496793993831858,1,0.125,0
0.6419999999999999,1.17135831893476,1.2525778730275212,2.2941913804865264,2.936524259164561,7.7994638940658065,5.074188922818729,1.7709123374677898,2.016693024487326,0.15412815208059852,-0.2272201093445084,0.7099085585358959,-0.4527568247316091,0.26124144023348367,0.35301649901642085,0.9354028201686493,2.1732017942608075,2,0.25,0
0.702,1.320830456601601,1.5506005210455365,2.1786156379793264,3.122711603159603,7.095867519101614,4.436638930399582,1.8558357095998437,1.7095376022611872,0.5652373284986801,0.5519667503031619,0.45637250797709944,-0.2845368601573974,-0.23263086687263787,-0.2825452264291053,1.195070702938255,1.2867715694611925,2,0.25,0
0.762,1.1072199703444532,1.1080259272110717,1.4622781130043911,2.3187104886943244,3.9273113997415607,2.2561774414256726,1.2410455697372296,0.9013214838115211,0.08465471139631896,-0.45286479917861805,-0.6591888943195607,-0.9398217054250947,-1.964587275121626,-1.733418319188438,-0.3851405543271746,-0.5646485672606648,0,0.0,0
0.8220000000000001,1.0413491767812408,0.6487812757889891,1.2990222891521042,1.7015333202227723,1.6013484655946921,1.9051021725257755,0.8345597762906061,0.5287322298392277,-0.044411657122250627,-1.17062805281586,-0.8728549073872457,-1.3792051096002147,-2.8800716986287846,-1.887626739598381,-1.2353011281815287,-1.261491660073592,0,0.0,0
0.882,1.0374940770168988,1.061356088656632,1.2411791514331665,1.7058372886403976,2.1774508322518273,2.557051191925556,1.0013798194628525,0.5158685843232372,-0.06345110365397615,-0.46092196305180416,-0.9755396515945586,-1.3798368423925893,-2.644774549422174,-1.4190211922068923,-0.8655488860140063,-1.2893099201255571,0,0.0,0
0.942,0.8170067487774174,1.2391741488750185,1.164983294196255,2.2449078468746375,3.8987409008568705,3.3778523177049933,1.2583470774561614,0.5004572115527547,-0.5943490950527377,-0.030542510365746272,-1.0899564472071444,-0.9793759191096884,-1.7958453881249612,-0.8433055941985125,-0.20969436921512952,-1.3245608006820218,0,0.0,0
1.002,0.5427535844106087,0.8909656079928098,1.1842263887649658,2.9505305198055267,6.1951782583779735,3.7247181767579836,1.0976296045350644,0.5679050688838383,-1.1738616150384267,-0.7958083066496714,-1.0563431212036465,-0.40795879362034976,-0.6227700189546174,-0.5673186115595386,-0.710581683376291,-1.17709231468805,0,0.0,0
1.0619999999999998,0.44882656091449374,0.46875902985457635,1.111226185635095,3.4901460685824026,8.14776114756686,3.6404494829627305,0.6744898544777118,0.6783974269943664,-1.3654540916680205,-1.5010839284463013,-1.1746176952759706,0.026956978392656043,0.424131672706441,-0.6255716721069248,-1.67324490373868,-0.911604303940997,0,0.0,0
1.1219999999999999,0.42901181224152213,0.4747997674416533,1.1957899171438577,3.328441241679675,8.35069814384339,3.602833607882828,0.8105527517401396,0.8022982431942153,-1.4102305760744505,-1.4822704011266197,-1.051587676326719,-0.10943307226077537,0.5546686469712446,-0.6552494489723558,-1.367882637575817,-0.6268140804499804,0,0.0,0
1.182,0.5385032518064597,0.7683400993867318,1.7238331915891434,3.34429162806557,8.528815146984249,3.1670448572149867,1.02497242815539,0.9354179857471959,-1.2244531845097497,-0.9752684528246133,-0.2648983996889988,-0.10419154062939123,0.6325320451987488,-0.9851494558169049,-0.7667642896839575,-0.31839854257375716,0,0.0,0
1.242,1.2573504148117451,1.3656082247163999,2.2295757101813285,4.298283004289016,9.640591775900726,3.4385584346359175,1.366254353298692,1.374883460096518,0.13884988632069226,0.11443505031649902,0.6256647648784263,0.6457554995279144,1.208764993125417,-0.8262782494023706,-0.005747988955268457,0.6002268744887475,1,0.125,0
1.302,1.87502621323093,1.6181557618941345,2.0783146671255945,4.952703650458318,9.902502940881378,4.76264107330064,1.775229099582979,1.6711913883401763,1.7577642710094838,0.7075061937143864,0.34725864818052193,1.1959497582663743,1.3533298589628888,0.1250660407187902,1.0610412240829772,1.3887697188809127,5,0.625,1
1.362,1.7734093959984003,1.2773166537250855,1.483363798840168,4.591101659291636,8.675414237817613,4.969928593692429,1.6614238604527676,1.3737001280901975,1.5027912926422304,-0.014399647993476566,-0.6145215688394317,0.8793382314220173,0.6714541996176843,0.2889474943732646,0.7213344372190956,0.5923588334427429,1,0.125,0
1.4220000000000002,1.1614042283047004,0.9694262874742955,1.3960313773833433,3.6206632762770785,6.5289998014376245,3.657019007375849,1.0612056625581965,0.9054525299751671,0.121724815830479,-0.5389148051321805,-0.7334591301426244,0.11799642678695593,-0.42205336248307646,-0.7272995652897206,-0.8552860514437294,-0.40779120053236,0,0.0,0
1.482,0.8495227341263238,1.3854095949552356,1.7461928675178195,3.544495475480147,6.976791698855502,2.8412513845095964,0.6374915148756728,1.0499934501109152,-0.4711091243330134,0.18026917479246599,-0.15616542756699095,0.0680602785782865,-0.21366956821681174,-1.2086668665747415,-1.724597393756856,-0.10254324793287556,0,0.0,0
1.542,0.9325400071269908,1.6265445823170912,1.607249154950599,3.662476270876301,7.724100959196538,2.9699899297739227,0.7468965062865538,1.246116848242463,-0.289456641651438,0.7337269773049638,-0.4523344347568705,0.16649090878499115,0.21079362508179622,-1.107459947578698,-1.4785071374697913,0.4118935839803389,0,0.0,0
1.6019999999999999,1.0619706039517787,1.3153313433087659,1.0253034854380905,3.088512758840866,5.654398910392697,3.111679395423792,1.1055668409454522,1.0232391379296406,0.00017131231461813,0.059852516751726315,-1.387759476771451,-0.30692236390953204,-1.0116845341904483,-1.0123743260462517,-0.6338758703630566,-0.2164714474933945,0,0.0,0
1.662,1.12160752465565,0.7821299161903568,0.7852106251800988,2.1695102824022596,3.4747662989418995,3.828504051754097,1.4049012800864282,0.5348814881968379,0.13714493948786335,-0.9928940447956944,-1.706764862755416,-1.088229329449746,-1.958521068280505,-0.5217457077001922,0.16778837231889546,-1.480541601508902,0,0.0,0
1.722,0.9597443774829124,0.7979776401554034,1.2213912249242909,2.049877080615088,4.859772501399251,5.12336552459605,1.4614482197102692,0.24110018433855546,-0.26602199428917933,-0.9800507120880958,-1.135849921112005,-1.2004446945102731,-1.3134474813807582,0.37243419834598307,0.31291222694373494,-1.9950244686665168,0,0.0,0
1.782,0.8240404416752835,1.5292513682334217,2.429821154578027,4.181054527066411,7.136698316811691,5.941145474940108,1.3157768979929265,0.6684377609436583,-0.5554242635240837,0.3882871203770783,0.7053831232188036,0.3267134604146115,-0.13645304056350632,1.0114854282482395,-0.061345882667127434,-1.1588600427455908,0,0.0,0
1.842,1.154680130942535,2.045529983612685,3.0810309632708415,5.858879879381615,11.95019081073316,6.606397121645817,1.4243069362285408,1.1437539351841002,0.1295669440998872,1.525452549294342,2.0213124051314177,1.882446806367809,2.1081725226458716,1.4681377333262466,0.18065929581061013,0.10312592145086652,5,0.625,1
1.9020000000000001,1.171358810794276,1.8919827260610877,2.692253718198579,5.8788524333134,14.356287385733106,6.350857225101429,1.6490027037899997,1.2379717088362825,0.17848568348932256,1.1923592788278516,1.3403713645323698,1.9166590074355263,3.5946838468721456,1.241684236975855,0.7784575742431422,0.384881414343146,5,0.625,1
1.962,0.7375317219650805,1.4146097452077178,2.018570509203777,4.744237830581207,11.896024161208402,4.362454371054461,1.4634140502994322,0.9938216341780823,-0.8089830836622368,0.31391829216019423,0.276552950037228,0.9668790499119897,2.2215129132506575,-0.269167701749397,0.2571152735216299,-0.19894242449740754,2,0.25,0
2.0220000000000002,0.6079728645694783,1.387980628821284,1.5656638631352393,3.3125008206766124,7.988179881438421,4.581699909001457,1.0357208214856448,0.835761567087199,-1.0414030418487499,0.2738128072672216,-0.46696000961114154,-0.1929055317881271,0.2576291206245677,-0.19312125589107623,-0.808596743480431,-0.5468734593402776,0,0.0,0
2.082,0.7584963111861261,1.497906435305764,1.5660922034595555,3.0198707415718022,6.619309249538239,6.806272355827548,1.057211682188078,1.0130065082799322,-0.6952025211815963,0.4934060037699892,-0.4715219451723495,-0.3730203494412551,-0.32469646770828614,1.4985439775383023,-0.7463165751416412,-0.16637409246811632,1,0.125,0
2.1420000000000003,0.6295948594084865,1.3833958255305063,1.9413317050145478,3.4226507539079254,6.533443648932809,6.106363962046765,1.2841861587232297,1.1272604941242945,-1.0709074286251754,0.26632331485324684,0.15845747149898223,-0.03203069616286983,-0.37380507461054796,0.864033044817278,-0.125045360274374,0.13491920343585517,1,0.125,0
2.202,0.3215989388919306,1.238318734814394,1.962260234300759,2.744954253446407,5.794724166223591,3.716222783952564,1.2536537204201803,1.0549542054978556,-1.67522075352458,-0.001936599554841605,0.2065950603435975,-0.6388070689296397,-0.7411181656588929,-0.63238654917039,-0.19890449315891637,-0.03069035731132981,0,0.0,0
2.262,0.4673246354629071,1.168431734863621,1.8639363363925403,2.055559432689535,6.0237147386249985,4.552205367792642,1.080066613281573,1.0708696083277456,-1.4153149463397758,-0.13810244165806007,0.05342660116823095,-1.104361545978717,-0.6272258691484592,-0.0673260311054759,-0.6415920050427858,0.007993256805238684,0,0.0,0
2.322,0.873965271333068,1.082570438767815,1.9632723892701012,3.070606083179685,7.202342649355922,5.409684973042512,1.0860607984302293,1.1727366445548348,-0.509747389278536,-0.30385522986174834,0.21434226733972017,-0.40429099540614416,-0.050262976728233044,0.6287577570356094,-0.6393870492510938,0.24383925694897876,0,0.0,0
2.3819999999999997,1.0789680225184135,1.0533386813967436,2.18284758024932,4.9846550415695265,9.270822997050617,4.711138765082438,1.3608452604569392,1.2109903196725598,0.03586814022135188,-0.3576222807196178,0.5645662828070243,1.096404351902298,0.9764403747473936,0.07832284688490586,0.03786317648074445,0.33287864067807926,2,0.25,0
2.442,0.9166724453718206,0.9546704621642427,2.1272736035565774,5.456073063698038,9.173052815175827,3.3801397349607347,1.3309954752563409,0.9862190708418919,-0.37037176517373865,-0.5644645937256011,0.45343375976102723,1.5437087009073058,0.8923816344997747,-0.852237099898914,-0.05437581757096307,-0.277524121491515,2,0.25,0
2.502,0.7824035902119484,0.7979761308655978,1.6794599326190363,4.0780523355809875,6.670031782044855,3.159816634339955,0.895633608256005,0.6334590443640509,-0.6600304129793384,-0.852770271719426,-0.28665108609785167,0.3916764755694418,-0.379406076419921,-0.9927059264541152,-1.2268513120328401,-1.0602425884029674,0,0.0,0
2.5620000000000003,1.281645858857943,0.9637098365653743,1.3801461302014169,2.871955705159846,7.144713737981898,4.424904031844207,0.5034493196043024,0.7500633209745872,0.3338439199647027,-0.5664080508266645,-0.7367548796930791,-0.45497854490098266,-0.1462581900457137,-0.14083185775588802,-2.0771317176938697,-0.8137330830327268,0,0.0,0
2.622,1.5188028202415833,1.208233105709748,1.3554493408937387,2.575052697583234,8.524693154448482,5.129054329519066,0.5606644301545249,0.8842040422955765,1.0068753260186518,-0.0697922294129464,-0.775554721577944,-0.6877103369706948,0.6345798001289085,0.4311193543263678,-1.9456174409643447,-0.43904334915028675,1,0.125,0
2.682,1.3478099094186726,1.0768846284213167,1.5818879150167997,2.092852616435551,7.497778796832171,5.303031295316366,0.8858444775837583,0.7664756650578026,0.6293731859806849,-0.37732167758881224,-0.4337945798240604,-1.104976613318575,0.07505160558499006,0.5490045331070407,-1.17546283579673,-0.7214009143439015,0,0.0,0
2.742,1.2534159903366378,0.7218158327048405,1.8842982997697395,1.595087974299247,5.7692853666687345,5.34545745274083,1.1910509699224612,0.8605861492399166,0.4297208060927811,-1.0236268334311067,0.06987321478883861,-1.4754715350792298,-0.7630206623327133,0.5723079969336698,-0.3757207554632929,-0.5275388669016569,0,0.0,0
2.802,1.1895353678217122,0.8604274563068668,1.75969502419781,2.177860753484621,7.001467630477684,5.106515647989702,1.3051247303161426,1.2570991223455419,0.28506507196369985,-0.7907545607604294,-0.15414058573330994,-1.0714479982006742,-0.2444839195179109,0.39960282539735464,-0.06700738104070393,0.3862398332984089,0,0.0,0
2.862,1.2607036428854932,1.1943141381402689,1.3847793024508905,3.3498064535414365,10.869036313672266,6.761522015577228,1.3351952329923957,1.4931914345086348,0.433952075489263,-0.10913094885680637,-0.7425119519494546,-0.14056636032271302,1.6761875136115478,1.4346784975312028,-0.005194515699903877,0.990556825548646,3,0.375,0
2.9219999999999997,1.5287576452920038,1.492482567113985,1.8274640876332802,4.9995619789021335,15.696839206578083,10.265755570402419,1.8842567860929538,1.8201252188152957,1.0266182335360672,0.46523975590446115,-0.13176852690329027,1.1368334202827486,4.161494087931284,3.9179417033185024,1.1935324088588957,1.6997926157356036,6,0.75,1
2.982,1.9269953199542447,1.7662958277201033,2.3502555464106707,5.742158081574009,17.85634887176055,12.258966047935033,2.343333320654997,2.1165647115795494,1.897412794265655,1.0005078555275386,0.8264574076461567,1.8130762991270528,5.376560570199988,5.483214634357522,2.458485692408027,2.4257245576218933,7,0.875,1
3.042,1.8746992819100572,1.6930123149618683,2.0978752527220794,4.639204850388288,14.383943372708893,9.980225145942708,1.8856777650577985,1.6744961180871516,1.7168534062030867,0.8381360481240255,0.3472745643622783,0.8137976450678885,3.3123236794624606,3.4935615795911246,1.0524146978275033,1.0954500896981472,5,0.625,1
3.1020000000000003,1.1697669769176493,1.218384234634083,1.2722793735591607,2.6068572244087154,8.150887503646045,5.405576123824339,1.035218422767347,0.8011988908427395,-0.03603122381199281,-0.1374524665066376,-1.1278615857688443,-0.8834282270563536,0.22342566864824906,0.4382960628352204,-0.7992188040603606,-0.7430237582823764,0,0.0,0
3.162,0.6932585579090405,0.725968397732077,0.6005898937247248,1.1201624522423768,5.495528467856054,4.057221005059468,1.0267421711754352,0.8070838450640276,-0.8650197319911737,-1.0404923538427022,-2.033581357722121,-1.8814930170301754,-0.8987450315458253,-0.33465020298992093,-0.7838655005447089,-0.6848314270323442,0,0.0,0
3.222,0.9442962897651307,0.5073257071460353,0.601446165490875,1.0223247917161518,5.840828363729093,4.428827175783306,1.320864396586786,1.0464562013495287,-0.3063377745704809,-1.4064075059720684,-2.014960930948825,-1.9296916634974952,-0.7190924398283887,-0.06758574059590379,-0.05875823252046158,-0.06691952816167678,0,0.0,0
3.282,1.0080132844057392,0.48608302178251855,0.877569523857458,2.1495679758980026,8.187792385520003,5.523950936569695,1.4699762478384166,0.9112812194119148,-0.12283048129548052,-1.4448441983122553,-1.60164785387201,-1.1872110148124186,0.3284123674235938,0.6524702115068857,0.3384168455272872,-0.4382654377561193,0,0.0,0
3.3419999999999996,0.8395985730517357,0.5124069040795963,1.2695149617078514,3.9271163523936177,11.870296900433233,6.579546061914579,1.432049130987486,0.61734702405333,-0.5024080856007643,-1.396507818585121,-0.9538633847391615,0.2446421064184284,2.2338267979298183,1.4447161682046292,0.24447930613710045,-1.0632280556388034,2,0.25,0
3.402,0.7521602759428796,0.6624551480703489,1.2626260373139855,4.507246365832455,11.855901161287367,5.744708437548095,1.2180711051510584,0.599205920637789,-0.6863179581777527,-1.1324999235607975,-0.978242184170001,0.8127680927736861,2.2259586965169453,0.7480193734578924,-0.33587124963718734,-1.096278030469117,1,0.125,0
3.4619999999999997,0.7017926454703735,0.9566921086297648,0.9875501957070708,3.46018092930983,8.1800333210265,3.6489114799456437,1.0834864993950224,0.8450650487229371,-0.8044423966725587,-0.5792311118793485,-1.4352861683112514,-0.08875023344268025,0.3285950032458856,-0.7206574380324507,-0.6822710155633591,-0.5811943564420294,0,0.0,0
3.5220000000000002,0.5703063589448243,1.164505138708567,2.4250750945350026,2.81792463504657,7.1728586339158396,3.2773339333379217,1.946744431220567,1.1437584231354327,-1.1076216073873215,-0.14827433857492386,0.32916505078871955,-0.5240120416514747,-0.075100452155233,-0.9304584642766004,1.1449467114414194,0.15387493306008881,1,0.125,0
3.582,0.5222685029024052,1.4041734326966429,4.433384627349045,4.296281788178035,8.075830967688553,4.587552334578262,2.4548464444804745,1.129082295808707,-1.2231848361039568,0.28329378917601555,3.944868309494772,0.5450306248189967,0.407469769635602,-0.009678940042760958,2.7160038975993768,0.12080349639468134,2,0.25,0
3.6420000000000003,0.9428738212013602,2.017619912047157,5.643734594577916,5.573567688631859,6.461715655891261,4.990174631505925,1.9351465087572532,0.8910230278707951,-0.426987154680539,1.3958473076546207,6.205240442689738,1.6717067980632236,-0.5833425903864532,0.3263781397833664,1.2419358935378824,-0.4268795630508362,4,0.5,1
3.702,1.6424764615173395,2.647456715727481,5.655514719048706,5.195382085844435,4.031257194340751,4.650042734506124,1.5312798093488353,0.9605523716917287,1.160612981517763,2.6682845614843624,6.216894425822635,1.3368034222956562,-1.6894033960876704,0.08728902371696884,0.3642414461220374,-0.3185169243433161,4,0.5,1
3.762,2.460038164158585,2.9481959602393832,4.718142714125801,4.170169567305523,7.770198708121896,6.0437876428543955,2.4412327834021728,1.900600293862843,3.0125048458697763,3.2718794208598276,4.601717253605415,0.5646900238549275,-0.20345629608302207,0.9603557599766033,2.463524880553459,1.5849857153178082,5,0.625,1
3.822,2.6164253367218238,2.690089908410142,3.6462966871429248,4.580498692791524,14.180644826786406,8.228399703630792,2.5387946141207522,2.8067876946670625,3.4275114250072316,2.737679134969593,2.9111196546477363,0.8590015021028755,3.219529625952602,2.5776110899708846,2.794116473147632,3.9828066349778566,7,0.875,1
3.8819999999999997,2.1607259455653267,2.7716482005005396,4.952265111727643,8.229219035161048,22.003624692067465,12.109022830675617,1.7347226190178555,2.840215889152591,2.4111065095301973,2.8493478257954035,4.640724114641014,3.3401760063065944,7.200295590824557,5.0929220442273175,0.856693944291051,4.096347297559004,8,1.0,1
3.942,2.741863777799579,3.78896486254719,7.3846912368906334,11.716127614377541,28.454131057847803,17.493927377559366,2.464725087995254,2.46859131556807,3.5108564096631376,4.769975401317375,8.834927451525958,6.390290132476533,10.626951871811878,8.9745291829349,2.2850179266734987,3.2564555741408117,8,1.0,1
4.002000000000001,3.698760660784126,4.388968685021171,7.967648143372856,10.985440246770986,24.994940564959602,17.59428522330246,4.92243384473047,3.1801464488951794,5.82224580041591,6.040190849130181,9.99165096313813,5.788814314381276,8.474213862964403,9.145794071094883,8.110307177857386,4.706839938478021,8,1.0,1
4.061999999999999,3.5917068676617934,4.137582908782818,6.818394657858806,7.592964410079671,14.737652314103421,12.849486531043034,6.46837435208868,4.175291953302807,5.562808594911346,5.5163199851332685,7.9996773625196225,3.177723184128741,3.5878087069144784,5.755850540025741,12.5672559563056,7.177375967808396,8,1.0,1
4.122,2.6347522327417394,3.17177226056605,4.606311027866176,5.445611002732774,10.024151056822669,8.166770622729086,5.758767508108144,3.9817450775404146,3.3711294109406835,3.519427898043124,3.718888729297563,1.5020151238983148,1.3354844876070266,2.023708017685445,10.632178347154307,6.672015855930147,8,1.0,1
4.182,2.259010806286908,2.6100735259307757,2.090129619621866,5.328038699640343,8.806587222741456,3.4670043090824447,4.229223386699633,2.9220987663912465,2.643137678586132,2.580952444590616,0.2215218477580748,1.4164637637431348,0.7763292052318055,-1.0034626565107223,7.095019009877061,4.210212120576963,5,0.625,1
4.242,2.5625472239666824,3.135217290326348,4.250866243172269,8.053271785945354,10.446241850820776,3.2613572617570177,3.6206357993131477,2.4893001679166527,3.3317671697957674,3.589172564598131,2.924114017856617,3.4566782889594356,1.587510308800501,-1.0376765231299936,5.626768901959141,3.319743562685955,7,0.875,1
4.302,2.2772940195622513,2.9467635610057363,6.762843561256416,9.065822635773495,10.193107909943103,4.117927785770416,2.845170741020749,2.215753279948354,2.596420474342216,3.153150122173782,7.773064874153118,4.391617295754368,1.4277330653762244,-0.3033492152533959,3.539270039378438,2.5577426639000396,7,0.875,1
4.362,1.7185442844138756,1.9858734865542422,6.414869857031764,6.603021383315907,7.457782479706459,3.731646421810974,2.0470233895090866,1.4124990504800476,1.4383835389108608,1.2937629997762574,7.181808036782616,2.1163783382987957,0.02420697130646031,-0.5826350005881215,1.7236411447695337,0.5689626371801447,5,0.625,1
4.422000000000001,2.036437055363184,1.8159531025323459,4.2798458015391185,3.496836799032595,6.91816042566002,3.4153100102963743,2.256496436737878,1.1111819839326869,2.0891222394325664,1.0279305010494708,3.8742192270106934,-0.02170488501349743,-0.20169366652219556,-0.7870632258317559,2.2083537209900714,0.012452643146638909,4,0.5,1
4.481999999999999,2.8122066419202993,2.9736430809467382,4.41212677825224,4.2834641074917625,9.149074936793257,3.846968958169084,2.8454184992838534,1.8298178574862172,3.828647889907218,3.0752667340257225,4.045098618628023,0.5095031348963012,0.9070910591842348,-0.49587504643330016,3.69180813242658,1.6023142693237322,5,0.625,1
4.542,2.855208447083971,3.8543320240860925,5.605122184371187,5.981285625315144,11.431898534029703,5.157881106586815,2.8658615104302188,2.124147252685884,3.8723168300100976,4.9624936274029805,6.049090761420486,1.9510176913452932,2.1027595257257747,0.37943258621993176,3.7576346245974173,2.435893833645322,7,0.875,1
4.602,1.8210081962200686,3.506074374904913,4.923959819724736,5.5967403718426585,12.36889646777822,7.314842523780942,2.8401869354953573,1.7945742131429552,1.0820808601082736,4.226164076048434,4.6829534317424235,1.5943902914585502,2.603299790183948,1.9031412581747664,3.682051891920768,1.6470193536368771,8,1.0,1
4.662,0.6505431862160511,2.369631544155333,2.7437810244316374,3.847065590114625,10.350515454124432,8.271948763701335,2.917818463924275,1.4255716102241627,-0.9918373931715928,2.00287538521276,1.2206684694457928,0.27042129595699804,1.4181730661325433,2.6455009520277026,3.844898045816158,0.8218421561091144,5,0.625,1
4.7219999999999995,0.8410004911646562,1.4455340771404943,1.766116959389462,4.013511882767304,6.856362686283684,6.6892033079729964,2.331485188520765,1.4985462765201416,-0.6007101050994029,0.27744133956910355,-0.12072490199947811,0.39780291128928597,-0.28089993694036564,1.3787010713652226,2.292880554463872,0.9510055099611018,3,0.375,0
4.782,1.322744070035398,1.0064767317180794,2.1419785858858726,4.782863252746302,6.420743157971711,6.090080396158141,1.7893056419125049,1.8899240213986777,0.5175044438514921,-0.44918399567324263,0.4418798294477993,1.0504759835515773,-0.4420049775725514,1.0077453190633077,1.125125635096025,1.871826413575944,4,0.5,1
4.8420000000000005,1.869047621934795,1.3732358988550057,2.7377884580647938,4.122695123174311,7.247126948196845,8.013551768116926,1.5038926852562735,1.8461821346318215,1.739343746920152,0.1262309727473791,1.452720182026327,0.44722103453866374,0.0011396620043154597,2.425222132501569,0.3173173170594205,1.7749037805628864,4,0.5,1
4.902,2.443215012615937,2.281210123795234,3.4113794155340917,3.0498679767143173,7.491630994967806,7.742009284352387,1.0999611424473492,1.590869080939738,3.045441805784367,1.8350905055353632,2.524132049665924,-0.32908368060462684,0.11756992864970485,2.181571329883511,-0.6001466029372241,1.218841963322657,5,0.625,1
4.962,2.474794954582461,2.647289449585534,4.279325282117849,3.3052950006034734,6.285731865517008,5.0455234515660115,0.9967266006585036,1.5105020622040997,3.1214995460348063,2.690133724118992,3.94339658981503,-0.12653204754622058,-0.5942417759469035,0.09840036689088068,-0.8580900476894114,1.0119097116327298,4,0.5,1
5.022,2.1719982754997407,2.28328594463752,4.657598724344737,3.689103015433305,4.962928255900147,4.369978000346688,0.718320011902207,1.0981594240037982,2.470599188060497,1.9626791215852728,4.609610914758571,0.18574374665807714,-1.1926353792803017,-0.2681601668807779,-1.7010265019651063,-0.13705565122155666,3,0.375,0
5.082,1.9038101221542438,1.7165436167414692,4.393013787019297,5.278054089156279,6.9109799613964045,5.93400542287145,0.4313070505785555,0.49010033796853364,1.8157657911574085,0.8401864542967684,4.167280830337059,1.293069048931612,-0.27012503801043075,0.9535941211447797,-2.282877584747608,-1.473023139508915,3,0.375,0
5.1419999999999995,1.3302552943337902,1.0997399750889132,3.5850426770596298,6.243366902623152,7.6742127248376395,5.567732814195393,0.8888369817992512,0.2805013164392797,0.4456887082493159,-0.3897239363959448,2.737181400517175,2.184480293545996,0.19368686641936064,0.6712659503890194,-1.309090646760138,-1.845919985934238,2,0.25,0
5.202,1.4303837229528846,1.487502443704147,2.6858978366827646,4.9958006345637225,6.261146252702993,3.794079251785654,1.204819178683936,0.48490217169917876,0.6103414117540419,0.07485173601385502,1.3418534026952162,1.0955107859639666,-0.5447032338615889,-0.6073126375301673,-0.3339895505213885,-1.439181144275639,2,0.25,0
5.2620000000000005,2.26052562014599,3.4803986366752113,3.502518482534441,3.7763250483688995,6.520918355985004,3.159802781463727,1.3661636282503118,1.1035772247432554,2.54845986642129,3.6816742899878636,2.475473633830614,0.24463347725003884,-0.4281194069901438,-0.9959576705972851,0.043093180753684124,-0.16069225144610633,3,0.375,0
5.322,3.1069636303819186,4.999368364473994,5.860060795223442,6.137740241519773,8.900204343006733,4.758860868028778,2.128197905255652,2.2354757586585055,4.445695517869502,7.132213732468839,6.2067778783878405,1.8104308276191283,0.7801559329629396,0.037777705550842845,1.7228107586109793,2.391681594607449,6,0.75,1
5.382,4.511795815393575,5.6113135501022,7.849078111937339,9.279377827335066,11.093139406157396,6.842878583088029,2.810635335893398,3.108345225825148,7.44508900705302,8.36882176928069,9.699824337431972,4.476341932399089,1.9324668864575827,1.586055190691236,3.6147096013732543,4.698468363094384,8,1.0,1
5.442,4.482176024968566,4.807864239593162,7.17204103790048,9.44170564825811,12.675468685095437,7.923433013341869,2.905093132774417,2.8400373769851393,7.32248162373039,6.557867458633712,8.393791736551332,4.684593547404886,2.754617520113838,2.4248746906202046,3.8821835304951797,3.959385676311412,8,1.0,1
5.502000000000001,2.7612947646577255,3.1883239122160343,5.19338117435672,8.092426111549397,12.641587847935732,7.464478564400148,2.8408717566718074,2.038988370096747,3.44070564642132,3.644212948967839,5.4386602384384455,3.6825962547468714,2.7171256538282886,2.066642967551437,3.728266769239269,2.2302548358683043,8,1.0,1
5.561999999999999,2.2947332351519987,3.0831404958959823,5.3553804835612375,7.569835284331159,10.589103887455725,6.327570260984941,3.061404177804506,2.056618585318175,2.5826467925951317,3.456200926474869,5.711184836873102,3.258747520202892,1.630842257849914,1.2521985159944562,4.249453552913092,2.288172296686232,8,1.0,1
5.622,4.448196228677403,4.935793318065886,6.835891339874508,7.548089708831069,10.864274772706318,8.180658809466205,3.826594235442243,3.340344836954196,6.8306590711381645,6.661896444065458,8.029661160348853,3.2342301465209666,1.7576692435451367,2.3761991732537515,6.036477169824732,4.847777776039129,8,1.0,1
5.682,5.645092353457821,6.074739407146695,7.063555009580558,8.488641135637765,14.03932011366219,10.731160182011005,5.047737955470816,5.249267830712334,10.130867528392878,9.234056980307466,8.37030792724108,3.9804075945586064,3.4005179008305446,4.379204193982317,9.042248791993318,9.437199953070541,8,1.0,1
5.742,4.392751155420606,5.255241607378843,4.887180359226014,8.813178699909445,14.911598653917906,10.655245961376805,5.313981008020994,5.31972234980707,6.744571872083299,7.533073711098512,4.359408212023583,4.255963009777681,3.8885741332463652,4.346785368668723,9.784240200059388,9.68969126781392,8,1.0,1
5.802,2.059353979293726,3.819208155761473,3.6907939673970764,8.156785549909493,12.755099017693379,8.777253677417692,4.1564609512797395,3.5507974844892445,1.7430894158552723,4.851718411800355,2.829539967810341,3.7132972291977904,2.73654183687032,2.969547266633771,6.711909340755299,5.440415022769604,8,1.0,1
5.862,1.1056619931774285,2.801226961922554,5.09934697985287,6.562382211475045,10.0821366409213,7.121938131826503,3.750017350277699,2.65858640765313,0.08031851799299056,2.8827590514863086,5.199523787540552,2.369994753768074,1.4067181862092735,1.8357019404010402,5.768709834398532,3.6697156185380746,7,0.875,1
5.922000000000001,1.4036141674597833,1.9794454754368251,4.7827480853161815,4.605822004475098,7.284330472263406,6.62126456252514,5.767998488784137,3.6529557279474063,0.7000432634119699,1.3657991163738215,4.526503746240952,0.8527053242727387,-0.18565951253891985,1.4990935075927847,10.426517078719986,5.798682109288747,5,0.625,1
5.981999999999999,1.8285148141640981,1.7251290559462114,2.902252345794323,3.445500347908166,4.472331730558863,6.608001994587149,6.6252135856616015,4.353019946254498,1.6827821460155319,0.9297508672812143,1.471822998579076,-0.017782185976544383,-1.4547581308497686,1.4896350989033105,12.922085091545986,7.607968486666048,5,0.625,1
6.042,1.9305451513234537,2.129721392975909,2.932845663687363,3.5753351389758357,5.999902772375044,7.33202406570801,5.000461466851446,3.6364856502741616,1.939743626488587,1.6408722935020077,1.54873527338926,0.07856220365168405,-0.7770343678546778,1.9689907545125276,8.394373229437887,5.736311894714841,6,0.75,1
6.102,2.284533258737027,3.0884497450392168,4.490333632321336,4.450854792726554,7.84850837871839,8.385432663828437,3.6278535588356013,2.736597901136088,2.6466837707807582,3.4047294226169664,4.17374165861431,0.7808633636217022,0.28253175521583057,2.726276497915686,5.600035562614397,3.895231826607897,6,0.75,1
6.162,2.56117339962472,3.7827343989767814,4.513233538735472,4.189444802060664,7.542782841071801,7.08746385316264,4.328025009083172,2.526215013312578,3.334161398243779,4.862808853083867,4.225019867769724,0.5136321492622522,0.13035567253539246,1.5741530736782499,7.337230653934423,3.3794132746784427,6,0.75,1
6.2219999999999995,2.164845966700221,3.3605483226662747,3.1087876097955944,2.73371272505406,8.153860483278075,3.9152997448936486,4.409518711595758,2.4529936672069264,2.397887368489387,3.914586470916388,1.9234525680531174,-0.6808261646591164,0.40263960818330286,-0.5946747102221076,7.570126986764351,3.2077641032517525,5,0.625,1
6.282,1.6388184573832325,2.3302657810272667,3.227746313677961,2.206082788492132,8.513699945308703,2.807995050953588,3.6348300971364895,2.7256286564432006,1.2617850906765673,1.9946158231113404,2.0804486843333985,-1.0199639489429304,0.5814441268785758,-1.2266053486957287,5.58086049788765,3.8485212766099792,5,0.625,1
6.3420000000000005,1.3007615380953401,1.9226051914086135,4.412222243775439,3.7735463377434746,6.750028477430109,4.870480301030441,2.974694233902591,2.4239596729209794,0.5119724071168746,1.3090497558029859,4.113803541877748,0.09931301237546776,-0.3300162161450341,-0.014786686896279008,4.030673596046451,3.0495858738670116,4,0.5,1
6.402,1.134838162501702,1.8685771370369928,4.9272683123790415,5.832598791441131,7.914676368712932,7.8812328291356595,3.133771324764375,1.867358998207733,0.16847438711279464,1.2041977619621915,5.044123277549897,1.7993151947977033,0.2019335977825322,2.230742311550682,4.413973374508598,1.8506957180124937,6,0.75,1
6.462,1.0236076989238228,1.8081751717419199,5.241032326326206,7.288725922920336,9.845627597308592,7.996040884537688,2.973638585705051,1.6322305531510637,-0.09897369841033164,1.0916256048487867,5.547805701760564,3.029955361607301,1.3131838671100102,2.3454700882298174,3.9389070604643837,1.2750008602968708,7,0.875,1
6.522,0.9177004194117918,2.163437097804765,5.022912908856135,6.9135319244760725,8.979973251425474,5.144183861920407,2.8039105974501894,1.532717531261567,-0.3196093096647711,1.697626970168521,5.153331525945,2.6603128491847365,0.8278323237427566,0.20125642375921712,3.488316315513108,1.016900639897599,5,0.625,1
6.582,0.9285642571234763,2.8863758521103895,4.004958705514378,4.7878965294914595,6.374876562955988,2.815921678861785,3.9002441357412607,2.1145763310854386,-0.29271897819257064,3.085561205085868,3.471902839960874,0.870539500775319,-0.5564033743175943,-1.2535311900080752,6.095437152307906,2.288290785144798,5,0.625,1
6.6419999999999995,1.0611876669151985,2.976786245753177,3.609873584163859,4.162076846814824,4.994124356366955,2.5800932398133845,4.05417131395109,2.3659519052239064,-0.02075538162387895,3.3029530644348966,2.8913598727009013,0.48142445552893953,-1.1803814257715035,-1.417259551365966,6.576125411252683,3.0178793052084063,4,0.5,1
6.702,1.238899406904384,2.4825499663623383,3.6607011965563387,5.084247281623005,6.837862293410641,4.489250781865465,2.8944600563135854,2.158708837409339,0.3942502770564013,2.3633502525046723,2.9670743653198737,1.2611569580789859,-0.3046210916974337,-0.2239451835024242,3.6159570416804954,2.543828172163644,5,0.625,1
6.7620000000000005,1.2081473770587798,2.063511629587605,3.2253141805122967,4.55633910781266,7.747473040517012,5.883025583726438,2.2923984057759204,2.1847458175470247,0.323606762995015,1.5446258982928278,2.2361470158704497,0.8169344742001982,0.2502664930300355,0.9555480126638852,2.3623303260754427,2.599479240792752,4,0.5,1
6.822,0.9737220562035834,1.453811419085214,2.677046579085697,4.196240296622676,7.9285472527230825,6.534950939391828,2.257935080442025,1.8245737027569575,-0.23140790005973808,0.2339191071230858,1.3563789009159664,0.5782322703898778,0.33246193735072044,1.4211387591104163,2.27092951976509,1.555747125541214,4,0.5,1
6.882,0.7015580446421754,0.8857139659704827,2.091558629456969,4.6352848060686656,8.870427660133283,7.07074847419917,1.8018090572902559,0.9733819430344186,-0.8204760475314449,-0.7236658841296516,0.3453382736282,0.9457859430054691,0.8175350604215175,1.8128735398224753,1.061080468742053,-0.4128200940200529,2,0.25,0
6.942,0.8506292346104029,1.579390110642842,2.1471833787943186,4.887612878384524,10.834118426701483,7.764597544912184,1.3701839593550973,0.7420775164509076,-0.5567923259434685,0.35662330176685314,0.41587806468160765,1.1429452146805128,1.7616618613074297,2.290207083866361,0.04114547987601908,-0.8390198151390965,3,0.375,0
7.002000000000001,1.1383109421003632,2.3183885018608565,2.64590887941972,4.465507893460259,12.061375182555063,9.228275801209794,2.085373541826763,1.2825301052274531,0.13555777293033724,2.001512188128402,1.3084684365608759,0.752631642942132,2.407960556990577,3.317512674951194,1.4978335403700864,0.35048193859761817,5,0.625,1
7.061999999999999,0.9949969393833831,2.089506980182372,3.1780182576621576,3.9928503424450503,9.808344443481548,9.477611181845116,3.0369535489951462,1.4874259118293292,-0.23910423191019836,1.4676849709175308,2.1222887992851587,0.38343653594197225,1.118767345733969,3.492701310110991,4.097443996079097,0.9648935715913046,6,0.75,1
7.122,0.7463809573561976,1.2360261451998673,3.9438025368983416,5.161752581392005,6.467926198893583,6.920328170802521,2.828924022613103,1.2366754434835638,-0.7148617519607795,-0.10964781966997167,3.3875447828358887,1.279050923441243,-0.42071632347699034,1.3441339414919804,3.4890619112922843,0.36688744632271203,4,0.5,1
7.182,0.9720023019933225,1.0790375135488641,4.098070457561312,6.211822960886383,7.191253646363817,4.721220763509137,2.0045191447848034,1.188388756237263,-0.2346769507640063,-0.34766205642221837,3.686182014834247,2.1786052879585394,-0.16950191285683291,-0.009403103778428531,1.596649425730697,0.2624451660705733,3,0.375,0
7.242,1.1159666387980094,1.3637774151483302,3.9293876773835996,7.3186731316091,12.606461351436755,7.33729426902027,2.140088274700239,1.32178693406004,0.11999887059749222,0.21140328510807016,3.409097714121671,3.0257964411325724,2.359570188654756,1.7475478162311058,1.9337772630899333,0.5664514476539692,5,0.625,1
7.302,0.9544800716275657,1.2438559337385517,3.310705888363667,7.241435435887238,14.80035947817417,7.521941764417951,1.968645611819147,1.0152270871954137,-0.276190085900683,-0.062236300479560504,2.2527812613265072,2.9495410620378197,3.7882620178709505,1.9680737135859765,1.3777653617586314,-0.39994348718677236,5,0.625,1
7.362,0.8592455900636222,0.8027565978789708,2.2470042638550822,5.305127855779851,10.908693321241579,5.033968917394885,1.2184661666594316,0.43844055493235595,-0.47367319453246953,-0.8834604084142016,0.6354834775228418,1.3610929727691554,1.5130594598496245,0.2820692274999796,-0.3728889792971353,-1.5410955769216839,2,0.25,0
7.422000000000001,1.1824754429664905,0.7297847281383605,2.1819048666513337,4.10448430414502,5.839867242897715,4.710620158388434,1.1609417616726359,0.6825388973345673,0.21440791094638512,-0.9932010464471897,0.5547384627221077,0.5205743429351972,-0.8175577151301633,0.1132797575749745,-0.4595656884620472,-1.0508258165136914,0,0.0,0
7.481999999999999,1.2510636169972713,0.7744828104777125,2.0196907801529207,3.296807632722559,3.9707955347716046,4.061039798963983,1.0899998550851413,0.9967486951830647,0.39855267586209625,-0.9047095844656733,0.2101587882614917,-0.2760477749648562,-1.6912386476945482,-0.5314916682830213,-0.731323396713992,-0.1871662914398681,0,0.0,0
7.542,0.8751930537163627,0.5669639519036541,1.2558060694783977,2.03602987656404,4.569476103710515,2.242381821947866,0.5838725295716372,1.0570413198634114,-0.5378553308018407,-1.3632200740461842,-1.0694070634568487,-1.1762236048551518,-1.4467449045424843,-1.7258404433290526,-2.0971043130001803,-0.025964341153320625,0,0.0,0
7.602,0.5428898586438115,0.4061711862275004,0.8008661331738671,3.4682709788458674,6.74781579801203,3.9806903876578326,0.6684417908527714,0.9668683479788014,-1.1838248918374228,-1.622768158597473,-1.68652658644067,-0.221929018440149,-0.3174624669026109,-0.7412234402334819,-1.9782389585579174,-0.24194059463598425,0,0.0,0
7.662,0.9063558545456019,0.8028630838210046,1.0676745951862578,4.64918600024995,7.374095271984242,6.505728405172671,1.6631461703507733,1.3031197174868254,-0.5043738020894432,-0.9772130035509176,-1.3073514430099784,0.9319507645174432,0.056948024577053585,1.3026574939577233,0.39817928473358233,0.4129688175341202,1,0.125,0
7.7219999999999995,1.3074162504361775,1.2894751333992123,1.332278610685046,4.2849788842937215,7.785900566116474,7.652423665914199,2.501924871436975,1.8972563944676257,0.5165543347236811,0.0344171143279448,-0.8314039265753719,0.6333024635436962,0.22914323453092708,2.2318776360201906,2.8007921581122805,1.8660373372884056,3,0.375,0
7.782,1.1566465736358782,1.2884344451522243,1.42326737123883,3.4940450847672624,11.65536166736521,8.686422025000194,2.2715001376852366,1.851782675830894,0.07574982951724647,0.04315270818965463,-0.7007942123393206,0.025871258468276318,2.028473369572137,2.9307237525898757,2.025222955690332,1.7206704096524768,4,0.5,1
7.8420000000000005,0.6060317975118686,0.8665134050621489,2.147958023570326,3.986821156243313,14.793009085501712,9.461244908469782,1.1928043333910714,1.164309404200434,-1.1440256965261666,-0.7722656993884333,0.3484354703332244,0.3818385604043329,3.8053767887307486,3.4900137733346717,-0.6916404422617108,0.016292444596934175,2,0.25,0
7.902,0.4592746349278179,0.5915584257307626,2.387333209017005,4.27342035319273,13.696834233931742,7.471741039130925,0.7808348776616559,0.7584726999286264,-1.3759278926084242,-1.256231018647321,0.8619063421810963,0.6470818517327798,3.205738833986637,1.7795543443459907,-1.4345713995676876,-0.7350296820860786,2,0.25,0
7.962,0.6943293863280392,0.7927904936385541,2.0761940133926315,4.002443354024102,10.82668550569722,4.250124440917569,1.1301376051153913,0.9164819550820185,-0.8527242085828187,-0.9412776614172603,0.37440441307860306,0.44409087212079973,1.7891842257750319,-0.2556207173705317,-0.5633680677542942,-0.368144198021586,1,0.125,0
8.022,0.9868144276360452,1.309141785267643,2.7687823795811703,4.396333888088081,8.247173310063909,3.8389021023543104,1.2530882517767474,0.9426267909421829,-0.19797022575277123,0.051325645316604024,1.3827101876295222,0.7395865627607597,0.3837844138577529,-0.48929617715104357,-0.19891891200701248,-0.2949611327148844,1,0.125,0
8.082,1.0573449339828178,1.7813129287372311,3.4863048078644048,5.625568383806659,6.605433120321872,4.693567805263255,1.3047505605615073,1.1283048157040758,-0.02142362282374906,1.0099967962094085,2.670343636593733,1.6660544613648263,-0.3431384040713019,0.08975527109216724,-0.08204937595778784,0.05930449492436899,3,0.375,0
8.142,0.9117371725224241,2.057916990437419,3.01898509382617,5.582093421177843,6.410690650888624,4.9477312679348175,1.6070963191477485,1.6286561292899409,-0.35383671337738964,1.5640043380297968,1.7716789914071114,1.5952098288875616,-0.4720994033281842,0.28994235981708427,0.6439743388614666,1.2299675371365584,4,0.5,1
8.202,1.6218529097359438,2.89519733664187,2.2667870017935283,3.631569016900793,4.634888432871001,4.379019869356131,1.6619071856927574,1.844522055202815,0.8801456942700585,2.974409407466558,0.6676764549675961,-0.033236928329608804,-1.4466052735999222,-0.1078882160511019,0.7962839588036578,1.8160777947818767,3,0.375,0
8.262,2.704693305691337,4.224381039446808,3.21714769995501,3.3328715125675883,5.255008801043568,4.550367414695302,1.6218050132363893,1.767418497071309,3.4918183717771183,5.575234843786082,2.042110006117116,-0.2351068413221491,-1.2366092245988782,-0.013895253054322099,0.6962114675895927,1.6331068279218532,4,0.5,1
8.322,3.018541920467225,4.6861617019039965,4.484582401330294,5.589676366928382,10.788887606237934,6.866611182067595,1.7195483588455327,1.5634295735468684,4.339290884316918,6.577122461191124,4.243727121906503,1.5223253027922146,1.419597300449109,1.480801673906166,0.9358228349751346,1.1317098171391498,8,1.0,1
8.382,2.1982564401926776,3.5106132781738686,4.233321476794484,5.806149982604181,13.703806491518176,8.285817620094978,1.5565174180204355,1.2648854111818542,2.080218080754098,3.7866767434861663,3.7514023997908903,1.7696421214360691,3.26128900003131,2.674608811150035,0.5032091786132578,0.4424218696787463,6,0.75,1
8.442,0.9386922313762452,1.530418247345305,3.1141296180550793,4.769474638715093,13.998224597530104,9.487284562158157,2.342523397497545,1.4035759226896716,-0.5551136860790833,0.1254354174647791,2.0415642417398625,0.9838100313252244,3.428674871694302,3.4698158930576923,2.03320846423029,0.7186416950969488,5,0.625,1
8.501999999999999,1.4355709218194233,1.7201138410304238,3.5150868699286586,7.466223417481648,12.743827238085508,10.244585704021556,3.204828497602414,1.7198772179788528,0.22819071848455152,0.33125931429320943,2.6485144919314116,2.8447109075994645,2.679544687030653,4.037238077374815,4.481153507070733,1.5018625895360975,6,0.75,1
8.562000000000001,3.4462668439981745,4.312337102270555,5.3020868566408375,9.617542783949395,9.269493409112691,8.793577828577556,2.578518693021161,1.8635344565063285,4.626723546220419,5.034988931108366,5.406407146982141,4.844298906693287,0.8552926273513338,2.97128288340357,2.4577610156514926,1.841446389168972,8,1.0,1
8.622,4.784206390925454,5.983104763963141,6.888322991166758,8.295820698500327,10.18341651098923,7.091859404451115,1.9024104083866682,2.221547385823174,8.233169060201568,9.015548918575243,8.167791339506469,3.6625374297040723,1.2765055533088636,1.8137567474722953,1.0380387528530777,2.6401523760778036,8,1.0,1
8.682,4.710610433045001,5.370280297939962,6.572299875492638,5.539225390584203,11.883902714154237,5.518446511362693,3.9064993986731786,2.9005520656934656,8.108901533359477,7.676254632744116,7.613647376272311,1.5871204683192124,2.2647363101954463,0.5843109097211638,5.558892353755032,4.199108284854753,7,0.875,1
8.742,4.080098403345178,4.040215420937466,5.59912561125982,5.0827163321521605,8.541202664971957,3.4262551816486697,5.403241498883887,3.6582720350981193,6.730390158295922,5.30537796653763,6.1173092693369755,1.2694464156054146,0.21860354753290898,-0.9101941660800934,9.975470532461934,5.986338761017113,6,0.75,1
8.802,3.618996706292477,4.650566309271867,6.50241929970387,6.557917664351864,4.827623494730867,3.9691103987959275,5.497357211315064,3.808311809639149,5.690945126889922,6.408128225310654,7.5145604980288985,2.401766778915901,-1.2844791237361028,-0.6209074959884627,10.274452974498125,6.385757062287184,6,0.75,1
8.862,3.2059411948136423,5.199538957920338,7.461250896930885,7.694777277727171,7.327864034940224,6.970636319966659,6.445678749309359,3.6350409135145747,4.7728240102181365,7.592920612275166,9.173159131946877,3.3573063130515295,-0.1200605406365693,1.5459806724366356,12.212928950361333,5.982438507937437,7,0.875,1
8.922,3.3769360814268934,5.336417601339007,8.29996320427612,8.751579675972879,9.580359421988952,8.38186268420651,9.056606662674286,3.9810062957089416,5.133955170451379,7.848171279250111,10.501826450504504,4.166396478852474,1.1667875231778566,2.739002624835386,18.601116608603082,6.766784730147599,8,1.0,1
8.982,3.355696939799217,5.0849776844115855,7.683144999856992,7.6244494745156715,8.697124601527406,7.077114718016277,8.720557892566864,3.69991189027538,5.081993620075424,7.312243201592026,9.28086890425392,2.9511744645111158,0.6516713167647693,1.7021444417402944,17.60709641766417,6.005721746656097,7,0.875,1
9.042,3.030121373997917,4.259801193090484,5.526508711672449,4.052615298637145,6.5136936356601565,4.804535461687278,5.420447102510543,2.8861408773157575,4.396541062731436,5.768383620472842,5.887440255621118,0.21379124349534673,-0.38900522567718904,0.13438469224121422,9.50357415328329,4.218401423333868,5,0.625,1
9.102,2.855652178844766,3.764234225688863,4.807662774045364,3.0025185674646324,5.715120897504959,3.8015842809661176,3.734486667571827,2.8057565440243564,3.989892270177247,4.830132692449808,4.85362913748235,-0.37201529274121653,-0.7813108174626721,-0.5182824669757574,5.899464193066437,4.058571687430356,5,0.625,1
9.161999999999999,2.552739848264876,3.1676980353192024,4.168148280429406,3.310897058005302,6.494271999969658,4.842644653071225,4.0357120954757395,2.9437651871397725,3.321619214045022,3.6313904368586734,3.6604924491313073,-0.10156189622542161,-0.45322114325877244,0.10900393356852478,6.621687412435352,4.375699648271193,5,0.625,1
9.222,2.007592318637022,2.3262652840878295,2.7830469488771032,3.886058210780291,11.372672105437362,8.150536721560188,4.084026453952229,2.54785443638433,1.903244517192233,1.9627669282714135,1.3891939875074446,0.3040350824637235,1.7762798839603466,2.3423321168658715,6.728265544299536,3.3166113352947946,7,0.875,1
9.282,1.2423146537961973,1.7053413602553822,2.1218525470352145,4.709392158569985,13.995297481311072,9.594916443856267,3.3076252618207627,1.8140355633517469,0.3656522836442914,0.8811933563925626,0.46954439938363746,0.9762047826866188,3.359327982136922,3.58278726119106,4.764144763335524,1.7050166948160568,5,0.625,1
9.342,1.1070609703328798,1.2906153254710562,1.8406170774405717,3.9117342376393083,10.355259530882279,7.659035527347164,2.4238654758887637,1.40351349811338,0.10681915792045465,-0.04313687812346689,-0.0656118075977581,0.1544869585775621,0.9461385634434727,2.0648546057050967,2.5784073708623496,0.7320962741755058,3,0.375,0
9.402000000000001,1.11756509716151,0.7524523396561328,1.2216507755107593,1.84380458896498,3.8561449327514774,5.680215118049336,2.2025454876480133,1.2807935916278075,0.1288666507479512,-0.9720724097096091,-1.0425109152540617,-1.4327990415332097,-2.012084617560969,0.812316074984024,2.1031731877806426,0.46955153473888706,1,0.125,0
9.462,0.9695390487974195,0.8313798447527755,1.2632287199621486,0.9585273449610252,3.5624694680229654,5.748650797602063,2.1479773261870863,1.3040666922194195,-0.23724853276032234,-0.8250688270965915,-0.9872208596374885,-1.9763734009042775,-2.0326374264086975,0.8723027989175539,1.9011517342268283,0.510615330009351,1,0.125,0
9.522,0.8198330826973896,1.0120290077891063,1.7128513990393688,1.7591099796649892,5.780705245700295,5.383680934946838,1.539943859700335,0.9207533470154604,-0.5409523492560784,-0.44546530777471705,-0.2318425104725159,-1.459113549197812,-0.8135933128912008,0.5957848763897325,0.390364666446612,-0.5383406412293361,0,0.0,0
9.582,0.8684319059720387,0.8843538096958952,1.6352942974007367,3.0942288928905466,7.210364127281709,4.411950492777679,1.220202637212504,0.5193046268076494,-0.42822541223356714,-0.7247629617168254,-0.37778188337952806,-0.3648319616373655,-0.026210512436800153,-0.1018943673977269,-0.28795256471375963,-1.3074916359561446,0,0.0,0
9.642,1.0451816207936897,0.6187139459322384,1.1644886571419861,4.084158124558538,7.38756090035137,3.4031346540313376,1.0580368582657402,0.704856597330948,-0.06605421350575376,-1.2140474925908078,-1.1180296786826838,0.49353691969818664,0.07127167509231454,-0.8351486228068868,-0.7266270056030377,-0.9014356742778186,0,0.0,0
9.702,1.4385076129449177,0.8175181624767237,1.278291305663167,3.894550037840015,6.686600173056866,2.8002822294707155,1.085885189607945,0.8798700929477996,0.789822176651302,-0.8976551834712647,-0.9525246475146104,0.31334116130274225,-0.2902713634243691,-1.2378481948279274,-0.6719876567016311,-0.43950653399403133,0,0.0,0
9.762,1.742025511367394,1.2143117319556787,1.6384900112822218,2.7002167467740064,6.674572548057602,3.952902335877945,1.4157794854078944,1.0023873280742512,1.5184861673436343,-0.08384948395130891,-0.329916014309615,-0.6738884875052958,-0.3009275821338823,-0.5226807822012515,0.1771755622266258,-0.15879194126067597,1,0.125,0
9.822,1.8129817824306378,1.4897824982911982,1.6184050441528637,1.831679214883646,8.497424866577626,5.486876290538987,1.4905401353584784,0.9721230046925919,1.6831957817775092,0.4713818685851538,-0.3587111290588118,-1.2776434040546063,0.5755014349155626,0.6512453882464302,0.3862384833370534,-0.2533336956966235,1,0.125,0
9.882,1.561159443968868,1.5651496188224319,1.5681140190484786,1.6838283645671586,9.266894749516265,5.569067057286456,1.2477482828364386,0.7061392384619496,1.0506826946019543,0.6234154404491282,-0.43801040937301927,-1.3900403899955427,1.0096763428869164,0.727016494011662,-0.27305866488004865,-0.9020459566868686,2,0.25,0
9.942,1.033800111799078,1.5071563443043567,1.9089764767082211,2.0444199966323655,8.284695396951625,5.321041423497405,0.8427519524003639,0.8200253105304622,-0.16922659557298422,0.5099068601054232,0.09642379987349563,-1.151353129732238,0.5128327770570441,0.5529958257215816,-1.3035697262806112,-0.6854701120002445,0,0.0,0
10.001999999999999,0.7312907048603093,1.570292489463823,2.3447905403903655,3.8071724401784794,8.37387859728773,6.356093852554453,0.9598157644693072,1.1603201267751861,-0.7395938544075702,0.623973192736314,0.8173601355013033,0.09243807168006458,0.5552690595010178,1.270212356894286,-1.0751409902064564,0.18833330884551255,1,0.125,0
10.062000000000001,0.8578894427085763,1.3733426069431915,2.4234053550833377,5.424426158634785,12.96919566916323,8.503416683582818,1.506690345262384,1.2441760387208607,-0.46667219040403024,0.1712812290875991,0.9615449084958351,1.5288557206517537,2.5972591361639963,2.732655281528162,0.3449352006666963,0.4130835245603033,3,0.375,0
10.122,0.9117281834478543,0.9698860755644301,2.4335857746023724,5.838302613478537,17.927281090976837,10.389311819160264,1.6977408002402423,1.2943284910444246,-0.3393546015464748,-0.5282628633652032,0.9761036748348465,1.8990331628887425,5.313620428190441,4.127447827943005,0.8888868306472109,0.5255565506472235,4,0.5,1
10.182,0.7547723467986663,0.9628736231689997,2.6128122234984055,5.413600182790337,16.009063973212182,8.789904021322451,1.4162800837752791,1.2681319319276756,-0.7090472400656879,-0.53190846034378,1.270661348845833,1.5566395810023563,4.110950787182882,2.7039459224225975,0.14095402577866403,0.4556507760796511,4,0.5,1
10.242,0.8612505471455428,0.9660723633956229,2.2945540841365544,5.325439748208578,11.604697529940116,6.0705386003427675,1.4311771537868703,1.102970691141033,-0.5261206882297872,-0.5257532093460952,0.6904315952316088,1.4879633415906781,2.140877207764379,1.0134262317838971,0.1593157747121409,0.07783848472564334,3,0.375,0
10.302,1.2138920828389257,0.8615755431523462,1.820308851856215,5.855492309545403,12.145501499519657,7.36521782652008,1.7178778364825031,0.9956972004370153,0.2934764688988401,-0.7310677446198849,-0.024028832313725334,1.9029414386496455,2.43268061808516,1.9348489238077364,0.911946794838672,-0.17342182037320183,4,0.5,1
10.362,1.0987886523873767,0.9279618188512582,1.5681494746223348,5.109247762109385,9.792410292879122,7.084723287709807,1.4250245037333842,0.8342490598908393,-0.0343634762764242,-0.6205256288817053,-0.46508115490064167,1.1727997830339412,1.0085989617734301,1.7258261482270711,0.06034078866909315,-0.5662257154480003,3,0.375,0
10.422,0.6424228170533417,1.0935007760294866,1.2183916981566003,3.1054572798797953,6.2349439901878565,5.796238441066063,0.922956490520126,0.6614052649017912,-0.9786120411184335,-0.2874817382546892,-1.0182091139542493,-0.38259235986691215,-0.5425393800693343,0.8979967736972113,-1.0307531312793525,-0.9537474280807251,0,0.0,0
10.482,0.622390809700007,1.0816984485870003,1.312912150038647,2.167154007421672,7.029948918770813,5.392498119327878,0.8098261697745633,0.8027379546897917,-0.9975799628169417,-0.3054359689190547,-0.8738257603933849,-1.007766471925572,-0.14366780546818816,0.5837388257702731,-1.301707246885435,-0.6815756395147717,0,0.0,0
10.542,0.6892745380650132,0.9733422222889593,1.5164418603235397,2.5925033341075183,8.17765173906573,4.129223756185414,0.7123401629033135,1.2123229306260161,-0.8316680965906024,-0.514503960006686,-0.5180282396847736,-0.7097886893028642,0.4718639997202357,-0.334942752703721,-1.5400179978053083,0.2707309361727306,0,0.0,0
10.602,0.6291289416991922,0.7754058394564828,1.3679196102371032,3.417483269698421,9.828628279761075,4.569839016410309,1.3983805627588402,1.447572616178394,-0.9672027203317781,-0.930032178735923,-0.7795621743685864,-0.045177909278320105,1.26541255304931,-0.09183011770695747,-0.31095019921602296,0.8873110057689408,1,0.125,0
10.661999999999999,0.8502586767271534,0.7038480680126328,1.3016579538874,3.3151740452039924,12.731068537859475,7.726039415266182,3.121978289773415,1.6497893740443483,-0.5522939903551792,-1.0754614720852795,-0.8909056615047168,-0.1427387038202893,2.72272536468536,2.047181176581304,3.7839262423644393,1.3390121671132338,4,0.5,1
10.722,1.5065775729419653,1.8703116381621525,2.3877489132911554,2.4237586879835433,14.034126022047289,9.550907456515171,3.9391033136184452,2.1370300830069686,0.8346910744800863,0.663895737207016,0.5866146601144457,-0.8393857388476499,3.4350245295969053,3.544009539517159,6.412926705968855,2.431267997973641,6,0.75,1
10.782,2.13417011899418,3.816469140663096,4.28191664491853,3.112101467725834,12.53397024703448,7.897012770202239,3.8406171574106622,2.689690124575825,2.3399185452914844,4.497756729472436,3.698392853538912,-0.4042852681278795,2.639918291465078,2.174763686931087,6.182897825974103,3.748259264022694,7,0.875,1
10.842,2.124777983361711,4.415213587225469,4.459143702800656,5.211940132424586,13.831776880641485,6.554229628779182,4.227458412384454,2.8440936593709445,2.3359369177403777,6.040348140801064,4.065212774498318,1.2531414726741996,3.210761659904655,1.3247270233690125,7.098707750980378,4.148950764929769,8,1.0,1
10.902000000000001,2.121635658056032,3.9957069124543914,3.205523836258061,6.762704819191916,17.12095484064368,9.2091602984994,4.207637907997122,2.657922530384083,2.314382529454313,5.273216228503634,2.0833469630265014,2.600712299997521,4.98458048361555,3.1749546773074315,6.99838473064813,3.7057828016323846,8,1.0,1
10.962,2.7906678247361882,4.43221092354555,4.514540912343368,6.6609134076490735,16.47476410907215,9.942671175713947,3.326228325085441,2.3347592067999408,3.7802877705395077,6.063871071485507,3.891646200856639,2.524470814133499,4.646469679167798,3.832134494557458,4.781612755214077,2.9261406428605423,8,1.0,1
11.022,3.393264377407116,5.488873620088913,7.401050610340764,8.307828846291557,16.745100984067314,9.491956875525037,3.571322044428112,2.4774619251050165,5.185674514030519,8.073176830562973,8.744867056572579,3.5931320612223927,4.74176823592059,3.5129718590933705,5.331036510656909,3.2095217430076484,8,1.0,1
11.082,3.3607185263657655,5.529666135444757,9.145425118901754,11.35370580576747,18.853621576355685,9.654495840619322,4.433668512643433,2.9183268041027053,5.1138678134701046,8.148281283492226,11.893605434418435,6.151696322430177,5.848256924279699,3.604568213387319,7.616373502230754,4.290685901991707,8,1.0,1
11.142,3.3385433606198895,4.361226689520967,8.398149047661967,11.02386034190507,15.644799552437158,7.493946431630265,4.318949760911769,2.5723474406737417,5.054272901750972,5.868686958894969,10.49153504894947,5.878259280652196,3.9173964934986483,1.7912034285761955,7.334642618235129,3.3752160094332098,8,1.0,1
11.202,4.056532964193083,4.148711426059849,5.8286757419414865,7.706260287305573,8.49493254268905,3.9292972349488777,3.609391120758295,2.0746277619632574,6.622105869858845,5.491536786076974,6.127369834120048,3.1552654902585178,0.2090298749929883,-0.5580856246765445,5.5714277515119015,2.3055105867404198,6,0.75,1
11.262,4.209688803021772,5.1779703728086774,4.467718151050773,5.107719653022522,5.749496176353751,5.0144288820086516,3.1271945901330014,2.786373706093868,6.997164834241453,7.45083055378872,4.282851088714517,1.2823943164994087,-0.9145131448564153,-0.01106115170765968,4.408002794261683,3.805194578290873,6,0.75,1
11.322,3.361341337772206,5.183217022807969,5.209698272711856,5.607012058304601,11.041393679376514,10.158866080991121,4.205785272670158,4.206363260492432,4.97029598566398,7.489981945715653,5.466146321100719,1.6154800780035796,1.5071561830958198,3.5440982608147173,6.698625274434729,7.1121672086621475,8,1.0,1
11.382,2.355785144783403,4.0851769432241705,6.2462263618302405,8.143958827164116,17.162928158813934,13.581152541548683,5.272875108095099,4.3814072370260755,2.7965983200189535,5.3739574953828635,7.1421323842973825,3.5796616038765037,4.880257360910769,6.414187761327276,9.67797440008795,7.595580730884727,8,1.0,1
11.442,2.4423406469148157,3.0320422210163653,5.8919366780395865,9.448044423712176,20.245678303097506,13.026660727213548,5.075840813324945,3.43167355213294,2.9741370711179065,3.3109711598290033,6.395453838082356,4.722982388514029,6.566073714823951,5.962566903917377,9.20912983315546,5.441657919122413,8,1.0,1
11.501999999999999,3.143257606164504,2.2154634280017786,3.9252353547270933,7.440553902578146,16.397597734818458,9.225356865221414,4.1184172075667265,2.918509757486801,4.605294492522803,1.7928921384473195,3.095944243479409,2.7911188660982957,4.120134275439924,2.979944426656449,6.730040898086539,4.310727257443678,8,1.0,1
11.562000000000001,3.8692799648037655,3.479281564650169,4.955363881331056,4.744508063335735,8.74216541782145,6.719380900083977,3.7345378925816015,3.2744367645815475,6.189069519618134,3.7148771533028864,4.367174809802005,0.9283928520127644,0.5625228237062428,1.501253986130397,5.8502190227396405,5.016111601492674,7,0.875,1
11.622,5.193322492320369,5.596131837055467,8.281803697112121,7.429414404532104,8.353266811633029,8.378408183336838,4.05843553005502,4.073767276897325,9.036316436703,8.093075628973741,10.095081613459998,2.797212035016788,0.47683651124595433,2.6857420612949396,6.681430608304425,6.937593813207928,7,0.875,1
11.682,5.806686840939298,6.3608484403471754,9.328830302490417,9.30940782318917,9.89504444886757,9.539646238386796,3.7115179635962114,3.9586986754736846,10.55808434391741,9.800065481060564,12.185404516412845,4.60844229970911,1.3417188145110162,3.5699781090000893,5.802286238044485,6.6659619142272,8,1.0,1
11.742,4.450198365133726,5.030782583453157,7.321471400747661,7.525964789414161,8.937947466718935,8.403057941348834,2.7562078418277745,2.7270261827469207,6.883169510065211,6.794855433378505,8.538270086394926,2.9674930172717064,0.8196877267868352,2.6503022724405936,3.3028383208429193,3.3924411894158695,7,0.875,1
11.802,2.1803803351063906,2.747324475026502,4.4637594249565815,4.403925600099351,8.139241150920832,7.068719008091234,1.6976350024823572,1.2478217702186811,2.066523597084164,2.5377082642430095,4.010306968602028,0.6441460618017969,0.4410293400716169,1.7820410956026536,0.695594869168438,-0.011809501728922386,4,0.5,1
11.862,1.3418654736803144,1.4448539396859674,2.589456487360453,3.5134468387258666,11.73031500423601,9.383165172411502,1.0772932653718554,0.43258732683841605,0.6288713078056755,0.2720909124957189,0.9414977976110873,0.04636295014240357,2.0421718677042593,3.3033325235554325,-0.6532636877510042,-1.5517715344247558,3,0.375,0
11.922,1.302600500754032,0.9588885739970013,1.5163588278896678,5.065496001896266,18.642521457487103,12.095071090770363,1.1286789651128075,0.27591321471855007,0.5346010306632895,-0.5577406975934314,-0.5463165324319044,1.1282454291457238,5.511410485757455,5.348548341286118,-0.5528089404830977,-1.8664184833289543,3,0.375,0
11.982,1.4597375585424504,0.9717297906161804,1.345628118903891,7.621943170899651,22.360662405670876,12.598831103560187,1.605894008113254,0.4864922509481012,0.8185409820956847,-0.5206511723000025,-0.8094485387955288,3.1848094318409212,7.6672108015849245,5.746480329199671,0.5816401011678799,-1.451644106749708,3,0.375,0
12.042,2.0599275524925944,0.9284961517129603,1.0931507412696029,7.996462933849499,18.512605904104447,10.13751357528972,1.581046352085096,0.7498409008648028,2.1305488427295827,-0.6167016163124622,-1.231818046448957,3.548941322808439,5.362568869286972,3.7698653007070018,0.48387000314910605,-0.769527272013722,4,0.5,1
12.102,2.04118191550207,0.6866434496976415,0.9884894464430471,6.08304708426278,11.567440328891747,6.726482578225723,1.1080456181423877,0.7896503558316063,2.0703732630819807,-1.087736131157178,-1.3787015075647178,1.993009245276439,2.050417078305519,1.4565251750197428,-0.6218584279713666,-0.6631379591690502,4,0.5,1
12.161999999999999,1.2995295944310714,0.4764700045597398,0.9637489453758867,3.936632943683971,8.358776339388815,5.6124865115589095,1.1745509570748578,0.5798996099521253,0.36609650921834275,-1.486461032189757,-1.440145521038655,0.19052601408906863,0.49454273805955573,0.7624797675492908,-0.4338200555659221,-1.20534417793707,0,0.0,0
12.222,0.863879167916691,0.2873224056064631,0.6348313014304493,1.858519994936587,5.34001973196411,4.3906789929419014,1.175514769551493,0.3489135858519916,-0.4385506384982716,-1.9059679895495056,-2.1379098163959687,-1.538957727352287,-1.3100547894163157,-0.3332307816818437,-0.4268987820095718,-1.687564455956025,0,0.0,0
12.282,0.8566114063212079,0.08954952286195857,0.16662370034405233,0.4467950212920406,1.8513159883322448,2.028502306301686,0.8600137487277101,0.2858654352651073,-0.4525961193124246,-2.2482610377025094,-2.836264483865964,-2.4743498318195605,-2.9437960252571824,-1.917705998724288,-1.210184564216793,-1.823909625030758,0,0.0,0
12.342,0.7959413920130163,0.01704706613147624,0.011714293079078855,0.084187396719172,0.49644975258135354,1.080665276746576,0.6370598943907928,0.25464496257922625,-0.5927622306007401,-2.3498881692829827,-2.9944858816970368,-2.6581212063212027,-3.440803724846489,-2.4528569775053852,-1.7293330064636097,-1.897791061028603,0,0.0,0
12.402000000000001,0.6854755558626114,0.013233364952626598,0.014751452995053763,0.09748040564320942,0.38193629044405925,0.9784002532185324,0.5202686132758648,0.216994918798713,-0.8412633318496967,-2.3540489397396325,-2.9700724992337997,-2.646635507887746,-3.4896070785689575,-2.5229710991624423,-2.0148749225930964,-1.9865232147934189,0,0.0,0
12.462,0.576255251846175,0.026218974816689264,0.02173558133931587,0.10828466244012852,0.3190555212931113,0.8705421835966509,0.42019814024356167,0.1789460429099645,-1.085107692757042,-2.3300645280831236,-2.9522308791902847,-2.6372730764461845,-3.5237978285779037,-2.6019444798077846,-2.2635117112848344,-2.0755286710190277,0,0.0,0
12.522,0.4769576963502714,0.039576630159168576,0.02481592185801449,0.10643303305815685,0.22188595672571554,0.7240968215127012,0.32625266957905946,0.14427109215877354,-1.3069532623319622,-2.302548408311497,-2.9469205098342095,-2.6387492528618943,-3.5744736335910496,-2.7070224753357555,-2.4962182425503867,-2.1564921379841326,0,0.0,0
12.582,0.38675619827124685,0.04926196247945951,0.026283797203914,0.10145094449655638,0.13260939738218386,0.5844408100492117,0.24326912730543412,0.1134930762581184,-1.5085060184249512,-2.2830679070664384,-2.9445004365565715,-2.6427115053678385,-3.6203753545241963,-2.8064290141113637,-2.7012463417632895,-2.2283653204370997,0,0.0,0
12.642,0.305865858603642,0.05510118868233832,0.027013884326061666,0.09506221770920642,0.06474894930690259,0.46185748422247036,0.1726926288160542,0.0864737964331689,-1.689188960006023,-2.271572090454123,-2.9432967416387865,-2.6478048437945625,-3.654768763590789,-2.893685360402737,-2.8757617901223966,-2.2914824644236416,0,0.0,0
12.702,0.23456653898788868,0.057916137838107694,0.026881099196278138,0.08720283327064351,0.02810491354350122,0.3547209105804983,0.11350763815445526,0.06311564097022292,-1.8484391920536307,-2.26607739660893,-2.9435159617826048,-2.654065141641087,-3.6699542496011657,-2.9700309974395456,-3.022962671012443,-2.3460655649137268,0,0.0,0
12.762,0.17272701387702422,0.058277733103125014,0.025876991030391896,0.07851381982035255,0.04318722841046845,0.2616882317397843,0.06484574791545496,0.04330690070974602,-1.9866420454456932,-2.265373367638531,-2.945172348657138,-2.6609719612952514,-3.663454747004207,-3.036369217137412,-3.145282421550998,-2.39245692233058,0,0.0,0
12.822,0.11997323712832841,0.056701681863694016,0.024202668415212566,0.06954673272952137,0.07137385267086147,0.182235895536546,0.029096516829849497,0.026800827467922707,-2.104761754779586,-2.2684266869935237,-2.947925310600104,-2.6680961217490164,-3.6482489852509477,-3.093118756718639,-3.2300239143792484,-2.431455236963872,0,0.0,0
12.882,0.07577971985229597,0.05374365792606412,0.022171873800579923,0.06052420796996189,0.09338195445042666,0.11563158129377311,0.018066067893875926,0.013740472196515242,-2.204413012957946,-2.2741439440541305,-2.9512537667948107,-2.6752649688986705,-3.636339306000068,-3.141017127855777,-3.2502623057172815,-2.4622199530230953,0,0.0,0
12.942,0.04034359879562556,0.049868348693155345,0.02001140427685782,0.05162923313529032,0.10668142668480299,0.06205825188499977,0.03305946547797771,0.005791211625522355,-2.2845865838875037,-2.2816221474310336,-2.954789175074215,-2.682329886594543,-3.6293515516888135,-3.1797188638923335,-3.2158909302956222,-2.4779806029831604,0,0.0,0
13.001999999999999,0.016944734483374822,0.04540171614172535,0.017807270205607642,0.043119133493476416,0.11328717988220154,0.026168035550883893,0.04939833179646765,0.007532356706668127,-2.3310959235126107,-2.290234253131238,-2.958397418542654,-2.689080919722062,-3.6259266398392285,-3.202693696874791,-3.172412196525428,-2.4745181446113316,0,0.0,0
13.062000000000001,0.01734047905852977,0.040547349230331056,0.015529804813734798,0.03530935640240584,0.11504241352773484,0.025381848750176537,0.06088931825151572,0.012801837363242167,-2.3297861768673926,-2.299592462390943,-2.9621349472276415,-2.6952614984113605,-3.625021854014568,-3.202824893114632,-3.1426403404669334,-2.4616896797010237,0,0.0,0
13.122,0.03079018221254002,0.035502477061626764,0.013200118583922327,0.028372886421134075,0.11311284384674804,0.04538431534019088,0.06761641840057471,0.017118622420159997,-2.29947778326898,-2.3093071166195376,-2.965952107857366,-2.7007501982225803,-3.6260131193778804,-3.1885504328155214,-3.1255956875982274,-2.450927317177122,0,0.0,0
13.182,0.04273831553073519,0.03052362162569681,0.010984844641858647,0.02221555917852389,0.10817875799073512,0.06345817786805029,0.07069516603927395,0.019818387760166208,-2.270847978313065,-2.3188785711424837,-2.9695659729989186,-2.7056321685863534,-3.6285452863562675,-3.1747226521611593,-3.1178574061103244,-2.444405536169218,0,0.0,0
13.242,0.05040993735368587,0.025812290315873607,0.009020310783370643,0.01672413186311298,0.10087538680217235,0.07516925071763861,0.0708458652127389,0.021259563090680597,-2.253026303544724,-2.3279258156040075,-2.9727626942055854,-2.7099928950730234,-3.6322884126594346,-3.1660361831744086,-3.1174785768163478,-2.440974338829881,0,0.0,0
13.302,0.05448372178673665,0.021457193195887764,0.007317176162602596,0.011903498708885884,0.0919701568183675,0.08146039775795587,0.0687085807432422,0.02174849693631295,-2.2437279058515602,-2.3362871950477633,-2.9755366179325176,-2.7138225979923107,-3.6368446175045523,-3.161453496258316,-3.1228109797193344,-2.4398162434392066,0,0.0,0
13.362,0.055987204834646295,0.017447835534204807,0.005774993149484741,0.007848691054204163,0.08234056968553502,0.08385071791347984,0.0649677404867206,0.0214532272448423,-2.240322485429509,-2.3439954295737646,-2.9780687169738744,-2.7170352563915494,-3.641759061273452,-3.1597256430380956,-3.1321196444941126,-2.4405134752375313,0,0.0,0
13.422,0.055576739239778766,0.013769284744992458,0.004315686921474818,0.004628038350774476,0.07265269333346844,0.08330991260126461,0.060193678449154873,0.020530888049204894,-2.2412483481136953,-2.3510670739966253,-2.9804695473301037,-2.719598281480792,-3.646699043213492,-3.160114856121004,-3.1439832649824093,-2.4426867980478373,0,0.0,0
13.482,0.05359574377553744,0.010498496985787698,0.0030177588257423323,0.002275865492174088,0.06306986872167904,0.08038688336941263,0.05470843513147268,0.019176941610341055,-2.245713708963968,-2.3573387487192865,-2.982584923927186,-2.7214146940470627,-3.6515898550054993,-3.162216940253213,-3.1576100011873542,-2.4458692381887017,0,0.0,0
13.542,0.050332198436734275,0.007712223253494452,0.001985396578571671,0.0012678199809800356,0.05362542957449819,0.07555087796172835,0.048745953165268974,0.01756746361704948,-2.253060567117867,-2.3626722773220528,-2.984251516410115,-2.7220477747394582,-3.656411101335761,-3.16568994995618,-3.172413632490245,-2.4496460910736957,0,0.0,0
13.602,0.046159262700268225,0.0053978812947935014,0.0012556608463586698,0.002079491116399325,0.04452855896937928,0.069363807190284,0.04258120519330217,0.01581866591606218,-2.262438508050072,-2.367110052211037,-2.985401103925399,-2.721483081116458,-3.6610506852856166,-3.1701258248789004,-3.187703365309222,-2.4537464450041706,0,0.0,0
13.661999999999999,0.041530103452274675,0.0034644736851716725,0.0008471506315358546,0.0031727852867020883,0.036166545839558174,0.062472231780973775,0.036534739417561544,0.013989385309258029,-2.272813515171053,-2.3708686431551125,-2.9860209579052683,-2.720560307261607,-3.665300658581901,-3.175054698882464,-3.202668883929256,-2.4580367317446608,0,0.0,0
13.722,0.03682852991530522,0.0018659172540427592,0.0007049438564552201,0.0038945793477902684,0.028868077360516605,0.05542133261855565,0.030868510303813757,0.012121494914747571,-2.2833364596161263,-2.3739932736955005,-2.986236496782689,-2.719950726810689,-3.6690031300011703,-3.1800910088880787,-3.2166772824869043,-2.4624157318504936,0,0.0,0
13.782,0.03216115312516278,0.0007961608904793585,0.0007309166877539192,0.004256995405636903,0.022529887012472844,0.04839679721646036,0.025630647125262692,0.010295474134744373,-2.2937940679853615,-2.3758019986323577,-2.9861963377360694,-2.719656974633024,-3.6722299918532513,-3.185112255375451,-3.2296401746817427,-2.466687647908747,0,0.0,0
13.842,0.027519525908418736,0.000815598414605349,0.0008544169079010554,0.004471815578686306,0.016873261903005705,0.04142881667402838,0.02077461924712081,0.008594677317722685,-2.30419918916339,-2.375745188843062,-2.985998535633984,-2.719485781760224,-3.675120469445575,-3.1900945329918913,-3.241667017478843,-2.4706602800994513,0,0.0,0
13.902000000000001,0.0229928489973386,0.0013652180696455672,0.0009716091880041133,0.004618018533402472,0.01182651088471503,0.03465937874636998,0.01632503401729845,0.007055179177703759,-2.31433977393421,-2.3746729932899067,-2.9858024426352294,-2.719369383840394,-3.6777065859925435,-3.194931597568463,-3.2526848013398957,-2.4742541656339263,0,0.0,0
13.962,0.018780012716414798,0.0018575431865010333,0.0010534481965707996,0.004610461574664609,0.007521739216374455,0.02835894972188196,0.012387178007686012,0.005666153057113521,-2.3237446542328137,-2.3736737102940437,-2.985668109850606,-2.719375711874692,-3.67990386064217,-3.1994201757215706,-3.2624045839458766,-2.477503082058258,0,0.0,0
14.022,0.015087685218445633,0.0022328935472602017,0.001145433300608933,0.004340980864464114,0.004208718776794726,0.022800025859922895,0.00907497247078038,0.004398922018206943,-2.331962836854751,-2.3729366007534676,-2.985518998740891,-2.719593734324382,-3.6815697034928383,-3.2033703622907304,-3.270556184667047,-2.4804728936565836,0,0.0,0
14.082,0.011895831636791932,0.0024854887573941826,0.0012272479593048692,0.0039053935745125214,0.002081046188966957,0.017965653537533544,0.006334723328743532,0.0032676103615754794,-2.3390918572386723,-2.372440379262607,-2.985383805932026,-2.719940319931769,-3.682574950358291,-3.2068153877722243,-3.277345098047283,-2.4831161165638096,0,0.0,0
14.142,0.0090402959178355,0.0025755320825223346,0.001224089221677706,0.0035032257438278825,0.0015360606096731877,0.013654127878712723,0.004012992067913852,0.0023119397708751734,-2.3454968000778798,-2.3722633319662307,-2.985389259220892,-2.720256493925137,-3.6827949383385348,-3.20989852894825,-3.283162223507406,-2.4853426215149055,0,0.0,0
14.202,0.0064632378234648295,0.002507591240667724,0.0011168006156029883,0.003207255699238294,0.002519464794034245,0.009792966983080813,0.0021440071516191533,0.001534954359395604,-2.351294532513937,-2.372396010248964,-2.9855686602659293,-2.7204888871557205,-3.6823416445615735,-3.2126665619734993,-3.287764837137583,-2.4871563884651255,0,0.0,0
14.262,0.004228900574693448,0.002353802543554911,0.0009872792415886963,0.0029327697052774593,0.0037199597332924377,0.006458092144426421,0.0010326472641474813,0.0009130121274055959,-2.356302935544997,-2.3726923327840885,-2.985777645202528,-2.7207084435487765,-3.681697576279722,-3.2150513432015373,-3.290128811277265,-2.488622961947433,0,0.0,0
14.322,0.0024748537699826054,0.002216372679965555,0.0009147455448362782,0.0025304375420687887,0.0044404153013503185,0.0038087197129843637,0.0011086484755760803,0.0004547156621449839,-2.360178923646939,-2.3729539937537742,-2.9858934323815896,-2.72103604927527,-3.6813041182634634,-3.216929703348498,-3.289946280048335,-2.489651813087859,0,0.0,0
14.382,0.0012879058863882083,0.0020989863822503674,0.0008742738438982605,0.002027571226781052,0.004672863520637054,0.0019472491288632003,0.0017109625750042874,0.000292576474751267,-2.3627187627011295,-2.373180292429874,-2.985959631885935,-2.7214368099978308,-3.6811823791722014,-3.2182173707719746,-3.288466179801057,-2.4899488669389953,0,0.0,0
14.442,0.0007692714959151502,0.0019276996312964766,0.0008022779011966541,0.0016053646624427961,0.004765178187820625,0.001060937114085846,0.0022962369855297725,0.0004564216708306937,-2.3636861138228387,-2.3735141238519315,-2.9860802911895195,-2.7217643253108736,-3.681135449835173,-3.218741063623312,-3.286961152818499,-2.4895980100147357,0,0.0,0
14.501999999999999,0.001090116252030499,0.00167896818689723,0.0006992228852202919,0.001351451798741424,0.004897620405514143,0.0015482593439969778,0.0027587081558520955,0.0006467180179546034,-2.3630674184562586,-2.373999338705857,-2.9862486075912553,-2.721959072417633,-3.6810682980279257,-3.218445433352137,-3.2857906176233556,-2.4891249035818572,0,0.0,0
14.562000000000001,0.0016852735922790298,0.0013990425506517864,0.0006513596195992233,0.0011961688592464683,0.0049685514043275635,0.0024614658875301465,0.0030676853019495054,0.0007740080113284463,-2.361705051222948,-2.374537451102983,-2.9863230302700017,-2.722082069869931,-3.681031973300083,-3.217772841714506,-3.2850090869180186,-2.4888146069789365,0,0.0,0
14.622,0.0020951291929284595,0.0011807498743282398,0.0006483006450343541,0.0009725741346747967,0.004720140000407953,0.0030989827390912423,0.0031441864245991408,0.0008668396019155651,-2.360716128516376,-2.374946543622833,-2.986328186183215,-2.7222707619593454,-3.681162566442747,-3.2172814871857205,-3.2848139208657643,-2.4885965325033297,0,0.0,0
14.682,0.0022417283511930544,0.0010415629725644576,0.0005934824952799301,0.0006748327620994241,0.004165056056377622,0.0033548099163700157,0.0030155690807746626,0.0009399664123977164,-2.3603756564203686,-2.3752114623470897,-2.9864217542356037,-2.7225067516166224,-3.681448555346338,-3.217092188069412,-3.285135852506738,-2.488423550023566,0,0.0,0
14.742,0.002295996972174275,0.0008976613205584914,0.0004926955168929742,0.0005355617033093796,0.003624310913457023,0.0034602277152306583,0.0028327888838371373,0.0009635615548277571,-2.3602545069711933,-2.3754935870353946,-2.986587624287964,-2.7226037391677433,-3.681720330830924,-3.217016852924521,-3.2855867822467584,-2.488367164923257,0,0.0,0
14.802,0.002380874952467324,0.0007112136473050432,0.0004452483171066226,0.0006386227316112111,0.00329782788163108,0.0035774259365222534,0.0026905005506296406,0.0009242829662475023,-2.3600661544726727,-2.3758602090951486,-2.986660398021776,-2.7225268154326723,-3.6818830420339803,-3.2169336066671375,-3.2859363085408604,-2.4884609059602587,0,0.0,0
14.862,0.0024603006804770743,0.0005308627216007004,0.0005024502245150847,0.0007712676613652986,0.003106148168248586,0.0036670532519448257,0.002565807607165263,0.0008432823288214435,-2.3598875433416224,-2.3761998109001126,-2.9865704081937245,-2.7224179760904033,-3.681980524440528,-3.216869302146627,-3.2862458632305187,-2.4886517722798183,0,0.0,0
14.922,0.002383282232917968,0.00042920911414937463,0.0005343065507826313,0.0007683190325454856,0.0027629460991344086,0.003545231088048456,0.0023469818932659535,0.0007697347085389584,-2.360066221284313,-2.3763839113453034,-2.9865148031535456,-2.7224203799558047,-3.682162904513087,-3.216958998807397,-3.2868003421145793,-2.4888212807624104,0,0.0,0
14.982,0.002119423908711519,0.00037995204471867773,0.00047969817630785116,0.0006515184237767608,0.0021805521195799194,0.0031779210363378422,0.0020070658367448706,0.0007233346820029952,-2.3606667269145154,-2.376478705428383,-2.98660709629968,-2.722514050165801,-3.6824671256871695,-3.2172251653026045,-3.2876525042506084,-2.4889290332379095,0,0.0,0
15.042,0.0018357624945128266,0.00032499023226315374,0.0004103281699592086,0.0005564721235213458,0.0016402788445045498,0.0027787775237274734,0.0016708833173964728,0.0006686456323667698,-2.361293132827972,-2.376585345942933,-2.9867180204060038,-2.7225868370648985,-3.6827334526157487,-3.2175071355670717,-3.288475009642385,-2.4890589452841505,0,0.0,0
15.102,0.0016683299460556297,0.0002987395995313048,0.0004244789496438549,0.0005547130886936832,0.0014581541962074753,0.002519897557893894,0.0014404962161223187,0.000580323848749961,-2.361658204412802,-2.376633294234708,-2.986697578645374,-2.7225884486922585,-3.682818796648151,-3.2176881015443857,-3.2890319779375914,-2.489270148599405,0,0.0,0
15.161999999999999,0.0015953985009774952,0.00034615822703660284,0.000531041215436844,0.0006527391539535125,0.0015928081567536416,0.0023770816583669587,0.001300287538695409,0.0004684279119038888,-2.3618197329711133,-2.3765467642352838,-2.986527813234801,-2.7225132776160366,-3.682751767978623,-3.217789232546737,-3.2893750555620187,-2.489534831260027,0,0.0,0
15.222,0.0014584841809028271,0.00037315374350920585,0.0005705326234352588,0.0007040341653753596,0.0015894148893284966,0.002155683965823698,0.0011310238951240813,0.00037388126204029306,-2.3621395070282474,-2.376491166268839,-2.986457203716695,-2.7224697488538276,-3.6827549098195314,-3.2179529452048836,-3.289809923386233,-2.4897493348283364,0,0.0,0
15.282,0.0011752824289469857,0.00031650829874866525,0.0004804349517917198,0.0006433098738028041,0.00124972520561541,0.0017529271452946906,0.0008665413036185859,0.0003238158116771357,-2.362795701625837,-2.376607684996308,-2.9866131468513846,-2.722519166542686,-3.682940810803227,-3.2182489988540546,-3.2904878674543863,-2.4898626159002717,0,0.0,0
15.342,0.0008789131022032534,0.0002467126787448694,0.00037749937082099847,0.0005687629413631138,0.0008771841624742102,0.0013317279279953242,0.0006090070734339586,0.0002846204264256458,-2.3634418568630555,-2.376734358410095,-2.98677229307703,-2.7225768394426857,-3.683118555106089,-3.218544022978809,-3.291104519013412,-2.489956317955882,0,0.0,0
15.402000000000001,0.0007655004918762017,0.0002696373432676968,0.00039522543893680365,0.0005570532112164187,0.0008958440693925418,0.0011142447736688637,0.0005204689434991972,0.0002298133893441935,-2.363674911749735,-2.376695236812654,-2.986746411702454,-2.7225859738439557,-3.683109619018319,-3.21868955749174,-3.291300962719374,-2.490087480770135,0,0.0,0
15.462,0.0008592936911620322,0.0003671288923767822,0.0005196294646808633,0.0006436625487385672,0.0011966165230987286,0.001150710055640752,0.0006025693644020168,0.00018192701281994852,-2.3634737188619943,-2.376512476557816,-2.9865502511011823,-2.7225207004410614,-3.682959904976902,-3.218664245797678,-3.2911057858492705,-2.4901949884360643,0,0.0,0
15.522,0.000914219205587136,0.0004195476933031737,0.0005906089018868818,0.0007113704326854498,0.0013456894563329514,0.0011821825527444942,0.0006458945596661845,0.000162260311329692,-2.363344339266751,-2.3764019943317387,-2.9864237918674026,-2.722464145304348,-3.682876518699031,-3.218641627426193,-3.2909914215290867,-2.4902390070186664,0,0.0,0
15.582,0.000768160621271092,0.0003636313579918271,0.0005161631402395117,0.0006444449635592107,0.0011771480294275468,0.0009858138480223102,0.0005447091638922518,0.00014935158063189222,-2.3637015764904032,-2.3765202611041807,-2.986556083464095,-2.7225203292500093,-3.6829682958151033,-3.2187945902501807,-3.291262367701394,-2.490269695077937,0,0.0,0
15.642,0.0005418542071528829,0.0002621618482625487,0.0003918401548020966,0.000542169543915884,0.000943287035802733,0.0006871695337380789,0.00040405152129458963,0.0001358538776836789,-2.3641933827134465,-2.3767104150762672,-2.986751785113101,-2.7225982405216365,-3.683081711581101,-3.219002656087097,-3.2915950726612593,-2.4903006914516905,0,0.0,0
15.702,0.0004886953551878285,0.0002456694670162181,0.000376897277493337,0.0005369610685348248,0.000925292841837274,0.0006080796943019414,0.00037943832528566105,0.0001356274387043191,-2.364297485294323,-2.376738339846046,-2.9867737083662025,-2.722602101355831,-3.6830900244137506,-3.2190519115459217,-3.2916494099135782,-2.490301385642906,0,0.0,0
15.762,0.0006396794244010322,0.00033541079693393515,0.000485693436659087,0.000637028144307315,0.0011019636950213379,0.0008000616290519566,0.00046525749919811796,0.00016323701356329287,-2.3639786091672192,-2.376575548881231,-2.98660556502279,-2.7225265945581394,-3.6830039987615453,-3.2189227626392896,-3.291447115570618,-2.490240853557457,0,0.0,0
15.822,0.0007597609886007788,0.0004057246843835764,0.0005768479554224059,0.0007308799120243865,0.0012568027521422764,0.0009517523900323194,0.0005366237576830644,0.0001925153953121407,-2.3636895315876214,-2.3764291274133305,-2.9864468252443594,-2.7224490309587126,-3.682921633683087,-3.2188058587448167,-3.2912608031197728,-2.490169347705811,0,0.0,0
15.882,0.0007002017618803097,0.0003730104903409084,0.000533172901159799,0.0006798290342208178,0.0011685919505354573,0.0008759370515701225,0.0004988478811018148,0.00017985525829140384,-2.36383400188299,-2.3764985036249677,-2.9865249919862067,-2.722492857536688,-3.682969895296513,-3.218864480565239,-3.291360763366372,-2.490202030608545,0,0.0,0
15.942,0.0005685521922413148,0.0002836387857773368,0.0004201004466002902,0.0005591365062237549,0.0009873039595566131,0.0007128697207058836,0.00042784950477113483,0.0001390302229669066,-2.3641181099882416,-2.3766679484917956,-2.9867054611644916,-2.722585707225594,-3.683058778089721,-3.2189765604438585,-3.291528797081557,-2.490296786383691,0,0.0,0
16.002,0.0005564343048445025,0.0002536972118194762,0.0003936643766568138,0.000544673707355237,0.000992131958307737,0.0007011390904680382,0.00043880916531569025,0.000124941757406051,-2.3641419291472405,-2.3767197061053054,-2.9867445056959525,-2.7225960316058146,-3.6830560092974474,-3.21898378163098,-3.2915020604991803,-2.4903265813132713,0,0.0,0
16.062,0.0006321943547831844,0.0003041339202946543,0.0004601142009771925,0.0006251883637892589,0.0011188585176693014,0.0007936850662307015,0.0004880487974622899,0.00015324762728719416,-2.3639753990925882,-2.3766278927194557,-2.9866400352049634,-2.7225339650776195,-3.682992348011456,-3.218918672656423,-3.2913804466939625,-2.4902644629983204,0,0.0,0
16.122,0.0006900636848577105,0.00035954212471030824,0.0005288703260952222,0.0007018083350729383,0.0012133537241897424,0.0008597708366849762,0.0005142267798333757,0.00018551802035694746,-2.363842447959605,-2.376517605994445,-2.986524555109986,-2.7224717211124037,-3.6829430468832505,-3.2188702280070136,-3.2913141289101753,-2.4901860546783623,0,0.0,0
16.182,0.0006500642158768591,0.00034607904825374465,0.0005070568325108185,0.0006675814204288378,0.001138562863508729,0.0008089468899182822,0.0004799725033498694,0.0001794443702149073,-2.3639369484906934,-2.3765455309436616,-2.98656290704222,-2.722500825335239,-3.6829834059507505,-3.2189083757610484,-3.2914025232988426,-2.4902015356897684,0,0.0,0
16.242,0.0005955695794494221,0.0002976460680992608,0.0004442397622838937,0.0005897041258633632,0.0010327439027370605,0.0007480348740417423,0.00044992001965961517,0.00014905583884104073,-2.364053801639789,-2.3766358862157064,-2.986662232556217,-2.722560441085015,-3.6830351105735413,-3.218950037775374,-3.2914737951651083,-2.4902713362925835,0,0.0,0
16.302,0.000664605072074344,0.00031271089126911586,0.00047526928092879765,0.0006362981255408742,0.0011448419551776995,0.0008388647564802685,0.0005074452908642466,0.00014921701554601117,-2.3639065435432407,-2.3766084800456215,-2.9866142502537887,-2.7225254365653577,-3.6829807368265732,-3.2188880963169257,-3.2913372474757243,-2.490270659197014,0,0.0,0
16.362000000000002,0.0007749922992334807,0.0003663161711524477,0.0005559741716942892,0.000743423361511584,0.0013355507315538327,0.0009766840890731584,0.0005886549003130836,0.0001744948446681677,-2.3636562271255315,-2.376505103154424,-2.9864814601573246,-2.722439768290252,-3.682882301369185,-3.218788329911827,-3.291133216199434,-2.490211814661251,0,0.0,0
16.422,0.000826859095452583,0.00039359037839123694,0.0005949893899605871,0.0007935049974589982,0.00142162540212565,0.0010417479347125033,0.0006257437498812637,0.00018847129604156263,-2.363535903766467,-2.3764504693953095,-2.986415030373589,-2.7223983946855324,-3.682836720406962,-3.218740223572756,-3.2910381433646125,-2.4901776655559296,0,0.0,0
16.482,0.0008438963771834707,0.00039622380539194125,0.0005979658746057835,0.0007949174709173611,0.0014346199061817176,0.0010667895400539216,0.0006384985537731565,0.0001874176400044728,-2.3634985001520312,-2.376445502580945,-2.9864103050351063,-2.72239735387866,-3.6828302602225733,-3.2187226869468297,-3.291007197854743,-2.4901801262426337,0,0.0,0
16.542,0.0009462254881567129,0.00044007581101771246,0.0006634351358903016,0.0008784354262810002,0.0015949252710307012,0.0011987132962332624,0.0007149227407702096,0.00020367630763493144,-2.363280115816665,-2.376365834479633,-2.9863090896729605,-2.7223347055438185,-3.6827526687816863,-3.218632712255968,-3.2908264705338666,-2.490144355434683,0,0.0,0
16.602,0.0011041514826390822,0.0005206379405774162,0.000783010597582223,0.0010350397596925384,0.0018680552472109047,0.0013958697540594007,0.0008312015072401137,0.00024165993716596573,-2.3629237088022848,-2.376210460143374,-2.9861128382737525,-2.7222100691999622,-3.682612621452171,-3.2184906287780866,-3.2905359751734995,-2.490055958430394,0,0.0,0
16.662,0.0011926335319902925,0.0005729097016167824,0.0008596109859117513,0.001136990446612582,0.002033223046096179,0.0015031203593923756,0.0008951797456244469,0.0002708901675274046,-2.3627191669888377,-2.37610670958635,-2.9859835545125946,-2.722126628452241,-3.682525729945619,-3.218411514352058,-3.290372391513653,-2.4899856059030516,0,0.0,0
16.722,0.0012312102206311702,0.0006013145762328953,0.000900793061499328,0.0011932727752700428,0.0021157926282121607,0.001547230577785843,0.0009223964047207262,0.0002900181371235724,-2.362633265253707,-2.376052240450677,-2.985916406487757,-2.7220820899742013,-3.6824837989345003,-3.2183801925895845,-3.2903053551165606,-2.489940870232427,0,0.0,0
16.782,0.001355917956947529,0.0006676834561185815,0.0009988850200333933,0.001323299907658313,0.002336969692329866,0.0017016967206749587,0.001014274599232457,0.00032466264969479176,-2.362364847542041,-2.3759291356649457,-2.985761657907336,-2.721982475129798,-3.682375129344029,-3.218274186460101,-3.290086533512684,-2.4898622854071895,0,0.0,0
16.842,0.001586605165099881,0.0007839961149165055,0.0011720337700007043,0.0015523701370724282,0.0027370484022761154,0.0019901880944211904,0.0011858347305133993,0.0003823269977611634,-2.3618538597404157,-2.3757079338937523,-2.9854816600576695,-2.72180278830298,-3.6821734322387765,-3.2180702673083776,-3.2896661291632836,-2.4897289957244375,0,0.0,0
16.902,0.0017772952995214614,0.0008817744863232793,0.0013180112845562494,0.0017468481561893321,0.0030733790457098,0.0022276037714407766,0.0013280515336848715,0.0004322460592821933,-2.3614166081508725,-2.3755153681127603,-2.9852371719421416,-2.7216447492844345,-3.6819978185016526,-3.2178965667999844,-3.2893053184698715,-2.4896094006667466,0,0.0,0
16.962,0.001817713598956912,0.0009049018096865159,0.0013524344507183346,0.0017934849465925835,0.003149760745888942,0.0022767124918522297,0.0013580156327102446,0.0004455311321141073,-2.3613231179612506,-2.375469400050012,-2.9851789776877236,-2.7216064840209744,-3.6819575630823724,-3.217860327810291,-3.2892286213015303,-2.48957724279823,0,0.0,0
17.022,0.0017282428767581575,0.0008625881974930065,0.0012889128541055278,0.0017096874483572382,0.002998639284241238,0.002163614547839305,0.0012908086085018082,0.00042595313301294513,-2.3615256851024644,-2.375551708767316,-2.985284070983358,-2.721673766387156,-3.6820355103741726,-3.217942020816103,-3.2893969980798636,-2.489623605149575,0,0.0,0
17.082,0.0016582090712018546,0.0008294850796778038,0.0012393546240290147,0.0016445466388488202,0.002880999258398477,0.0020750081993911465,0.0012383495435964581,0.0004107686730190063,-2.3616789699489757,-2.3756139694217753,-2.9853633386363003,-2.7217243257286037,-3.682094162225617,-3.218003893630724,-3.289524035968888,-2.4896583719450542,0,0.0,0
17.142,0.0016607113503631498,0.0008321832228058496,0.0012436012083184337,0.001651126623100023,0.002889662541167767,0.002077267807036104,0.0012404141110135493,0.00041326080461347685,-2.3616733059938424,-2.3756087691897103,-2.9853563791524707,-2.7217190972782475,-3.6820897305592126,-3.218002251575308,-3.2895188709851126,-2.4896525442774795,0,0.0,0
17.201999999999998,0.0015750696560961632,0.0007903451326264215,0.0011811714627248733,0.0015688286106801848,0.002743556719772193,0.0019695295027908283,0.0011765194210850746,0.00039328465186893317,-2.3618731143061518,-2.3756926396320397,-2.98546282963389,-2.721787206888619,-3.6821674021735635,-3.21808244257684,-3.2896838414766854,-2.489701310478244,0,0.0,0
17.262,0.0013498990792838751,0.0006779854121288373,0.0010134272103745935,0.0013465802273177954,0.0023535889491477905,0.0016875468891811639,0.0010085019190891875,0.0003379462220427441,-2.3623868851217065,-2.3759129735914315,-2.985742544564957,-2.721967026948701,-3.6823700720342534,-3.2182877107388457,-3.2901079637308146,-2.4898334053242563,0,0.0,0
17.322,0.0011297572851959835,0.0005670654349342264,0.0008484992279403344,0.0011287402178955458,0.001972834858256601,0.0014120905895460033,0.0008449925922868419,0.00028317716107636445,-2.362867919343391,-2.3761213313644998,-2.9860059650041837,-2.72213583567903,-3.682559574959795,-3.2184797350644736,-3.290503190931371,-2.4899586518921266,0,0.0,0
17.382,0.0010000939529994164,0.0005005759606596861,0.0007503747416818824,0.000999904301527209,0.001749224380431741,0.0012500824667303263,0.0007495298989535415,0.0002502184408233035,-2.363152077634677,-2.3762465651240663,-2.9861631544559946,-2.7222360011454048,-3.68267123601818,-3.218592999748361,-3.290734687592424,-2.4900342573499934,0,0.0,0
17.442,0.0010943409678829423,0.0005454101517417451,0.0008191437453001999,0.001093183428965782,0.001915562270418705,0.0013683437394601237,0.0008219108319451135,0.0002724180262472134,-2.36296935254895,-2.3761720697805395,-2.9860658487609197,-2.72217188401439,-3.682597721837732,-3.218519837906172,-3.290579204901146,-2.489989361697372,0,0.0,0
17.502,0.0017500614393598751,0.000871669184697929,0.0013093144692390161,0.0017473910764810852,0.003062808497039017,0.0021884510168718803,0.0013145827248016804,0.00043515233817582806,-2.3616591446387702,-2.3756125762667932,-2.985350626724879,-2.7217084940014957,-3.682075467172966,-3.217996982284138,-3.289489390083735,-2.489649753446142,0,0.0,0
17.562,0.002981120374418823,0.0014868651566210033,0.002232080871639616,0.0029775653679625317,0.00521625682864434,0.0037274655449267653,0.0022378539679763975,0.0007425029295731154,-2.358997427885204,-2.3744702825979274,-2.9838931920073413,-2.7207655248080553,-3.6810148505824434,-3.2169352950921706,-3.2872801455064136,-2.4889552170665508,0,0.0,0
17.622,0.004634571289302653,0.002313807592110417,0.003472187150188269,0.0046306185819986155,0.008108931858465085,0.005794318470324415,0.0034776032062450737,0.0011558527340105576,-2.355302711029435,-2.37288274931691,-2.981868430563877,-2.7194557713361522,-3.67954245937381,-3.215461786539348,-3.2842147835107336,-2.487989326105539,0,0.0,0
17.682,0.006526556492381376,0.003260115220485581,0.00489134195349652,0.006522444258571564,0.011419275406793014,0.008159286844563239,0.004896252143647393,0.0016289515377452327,-2.351028984167986,-2.371046259579398,-2.979526069770037,-2.7179404827076836,-3.6778391130288424,-3.2137574103556013,-3.2806689173505075,-2.4868717306384336,0,0.0,0
17.742,0.008559584758479647,0.004276959213384478,0.006416342380249262,0.00855547163286556,0.014976662704904834,0.010700530543486691,0.006420727882864439,0.0021373641745013523,-2.3464562669420443,-2.3690813695736135,-2.977019797072693,-2.7163190567396396,-3.676016451396104,-3.2119338113251654,-3.276874744253183,-2.485675885329838,0,0.0,0
17.802,0.010851405171689895,0.005423215774673633,0.008135492566748278,0.01084742332006951,0.018987113005498945,0.013565240146596156,0.00813933105385211,0.00271052100259789,-2.3413513385479265,-2.366887873552251,-2.9742218074674156,-2.7145088200940575,-3.673981533666886,-3.209897977019073,-3.272638767906979,-2.4843408242867144,0,0.0,0
17.862000000000002,0.013546796860144364,0.00677125708829157,0.010157352003170876,0.01354304025331051,0.02370395440248306,0.0169343981749102,0.01016064764222093,0.0033845974998294908,-2.335353708566154,-2.364310925617598,-2.9709345671603535,-2.7123819693814415,-3.671590672532163,-3.2075061379596748,-3.2676618343228667,-2.482772324034513,0,0.0,0
17.922,0.01664456262201686,0.008320470657523246,0.012481002402282232,0.016641093166225075,0.029125061236876706,0.020806515270411642,0.012483780517049601,0.004159278495427957,-2.3284419734097868,-2.361341352207393,-2.9671463747783036,-2.7099309381825445,-3.6688353509293186,-3.204749753815016,-3.2619261830547175,-2.4809648203864074,0,0.0,0
17.982,0.019977808772553837,0.009987401748688797,0.014981259750718246,0.01997466366503253,0.03495834250702756,0.024972979476302132,0.014983557490292171,0.004992829670321684,-2.3209713950931774,-2.3581317707846963,-2.96305193743464,-2.7072817168998817,-3.665857205393506,-3.2017705019331064,-3.2557266553331843,-2.479011214997333,0,0.0,0
18.042,0.023340932514635118,0.011669246640386034,0.017503915048767166,0.023338133139379408,0.04084397260770969,0.02917679024617747,0.017505772792575737,0.005833844639525874,-2.3134229106137787,-2.354888776134531,-2.958914826168644,-2.704604854594838,-3.662847970244945,-3.1987601806187853,-3.249462394384894,-2.477037257854808,0,0.0,0
18.102,0.02672335923573565,0.013360716440371881,0.020041031860169308,0.02672091389288478,0.04676342841347638,0.03340473171248731,0.020042492126235486,0.006679675203859943,-2.3058513330256187,-2.3516359183537303,-2.9547650904539626,-2.7019197997671776,-3.659829506664527,-3.1957406475619567,-3.243178898508981,-2.4750572925073393,0,0.0,0
18.162,0.030181348863028264,0.01508993815384895,0.022634798186387473,0.030179251236833543,0.052815146666421606,0.03772713161334039,0.022635907769523303,0.007544380705980528,-2.298114255615661,-2.348312029227524,-2.9505246991670173,-2.699176066864849,-3.656745053827313,-3.192655108354199,-3.236757990950334,-2.4730340993401074,0,0.0,0
18.222,0.03361644267305934,0.0168076816898376,0.025211366023042588,0.0336146761133884,0.0588268100842296,0.04202091837233541,0.025212172575264716,0.008403343121709322,-2.2904172082030123,-2.3450053936943855,-2.9463062882010704,-2.6964465410728615,-3.653676551778963,-3.189585528659032,-3.2303702518880937,-2.471021416178108,0,0.0,0
18.282,0.03674262880924715,0.01837094192571557,0.027556224767359548,0.036741169872113684,0.06429788677441901,0.04592857820769846,0.027556774460472947,0.009185057896202503,-2.2833922604316075,-2.341987514274981,-2.942456235818652,-2.6939553502324665,-3.6508759762406533,-3.1867839816933032,-3.2245402521034627,-2.469184488107976,0,0.0,0
18.342,0.039167806126442876,0.019583670210006256,0.029375298682197792,0.03916662773304635,0.0685421919153782,0.04895998505514691,0.029375634526310104,0.009791499596130286,-2.2779286398063725,-2.339640353834642,-2.9394618414159894,-2.6920178048096184,-3.648697815840046,-3.1846050974101536,-3.2200059805296326,-2.4677557865823316,0,0.0,0
18.402,0.0406476734010686,0.02032371836319012,0.030485363023581142,0.040646746920926284,0.07113219302081933,0.05080976233777125,0.030485524115125624,0.010161593614506565,-2.2745943622891627,-2.3382078984868637,-2.9376343780891094,-2.6908353168874726,-3.6473685093693575,-3.1832754045569254,-3.2172388478809975,-2.4668838070687467,0,0.0,0
18.462,0.041042205867742834,0.020521076069977186,0.030781400163293043,0.041041501196434,0.0718228419767597,0.051302879084554276,0.030781422267606818,0.010260334309061123,-2.273704949837109,-2.337825675564832,-2.9371467505146485,-2.690519766707375,-3.6470138396870966,-3.182920735654213,-3.216500716023957,-2.466651034384999,0,0.0,0
18.522,0.04008033772662234,0.020040212666830145,0.030060112215363366,0.04007982448399807,0.0701397704368255,0.050100502808770986,0.030060027533009303,0.010019956206436061,-2.275882763552623,-2.338761014392437,-2.938340011261177,-2.6912918342813144,-3.647881908130047,-3.1837892930239438,-3.2183080958111554,-2.4672201692894413,0,0.0,0
18.582,0.037283713017329585,0.018641953345381282,0.027962734762025886,0.0372833618570532,0.06524585306327593,0.04660468798463904,0.027962570479418754,0.009320872115088407,-2.2822608215753584,-2.3415005941234437,-2.9418350524022276,-2.6935532701372558,-3.6504243855769136,-3.186332932926641,-3.2236013001075015,-2.468887411409152,0,0.0,0
18.642,0.03186786927020491,0.015934071361821085,0.02390092491395083,0.031867653353154245,0.05576827868335223,0.03983485553526072,0.0239007011484631,0.007966969266959886,-2.294832746387319,-2.3469007606580106,-2.948724375805757,-2.6980109809931747,-3.655436016752646,-3.1913467272481157,-3.234034871653453,-2.4721739440434187,0,0.0,0
18.701999999999998,0.023257966131471287,0.011629141446306899,0.017443549044570784,0.02325785916435477,0.04070108383527626,0.029072455571721546,0.01744329402932404,0.0058145353257057645,-2.3154233870188063,-2.355745383993137,-2.960008008583347,-2.70531203105797,-3.663644261285498,-3.199558438533034,-3.251123264753654,-2.4775568416517992,0,0.0,0
18.762,0.013290512834223342,0.006645387825307936,0.009967964292411294,0.013290477631397518,0.02325818126654897,0.01661313031334253,0.009967754273447416,0.0033226800806671944,-2.3381667844535983,-2.365514857699282,-2.9724714647939283,-2.713376454619151,-3.6727106776771805,-3.2086286725688002,-3.2699981424481748,-2.4835026447405157,0,0.0,0
18.822,0.011731719964130036,0.005865801738685796,0.008798732753347907,0.011731670022129633,0.0205305079328127,0.014664665718901194,0.00879882392244465,0.00293288798178813,-2.34132401688256,-2.3668713276198123,-2.9742018125333094,-2.7144959728930043,-3.6739692010938327,-3.2098877845819818,-3.2726180515120085,-2.4843282118792147,0,0.0,0
18.882,0.02798514490943126,0.013992418238462551,0.020988717060440323,0.027985042241872937,0.04897404241312404,0.034981467909662,0.02098895931896743,0.006996183575037671,-2.3096246997373755,-2.3532551869839806,-2.9568306813041274,-2.7032559044181763,-3.661332453896602,-3.1972458508372164,-3.2463101499540077,-2.4760412515827883,0,0.0,0
18.942,0.05346724970054813,0.02673345704964103,0.040100273468036324,0.05346710893804216,0.09356768585709488,0.06683410701685238,0.04010053621618378,0.013366692301074385,-2.252132494523831,-2.328559559499867,-2.925324857004713,-2.682870045012504,-3.638413608534247,-3.1743175389179843,-3.1985966147348592,-2.4610111443023235,0,0.0,0
19.002,0.08547833617048803,0.04273901108907857,0.06410858835795784,0.08547817302951993,0.14958704032319958,0.10684796749439027,0.06410883326798432,0.02136946253006431,-2.179890096748752,-2.297527938843117,-2.885735834148291,-2.6572539669530104,-3.6096147114983563,-3.1455067502010063,-3.1386417719610176,-2.4421248434648746,0,0.0,0
19.062,0.1236978336175571,0.061848772969823725,0.0927732167452578,0.1236976589503626,0.216471127266636,0.15462233957278101,0.09277344039300613,0.030924339763798072,-2.0942691475354365,-2.260749584975492,-2.8388153243120104,-2.626894041289996,-3.575482540347305,-3.1113605004549147,-3.067583887181936,-2.419740985343935,0,0.0,0
19.122,0.1685290484991903,0.08426439390686026,0.12639663607613963,0.16852887017914658,0.29492573104967157,0.21066135707913156,0.12639683815285646,0.04213214880086552,-1.9940734497443418,-2.2177106764442964,-2.78390781210309,-2.591366116927443,-3.5355402413240835,-3.071401737093236,-2.9844302209491818,-2.3935468527485493,0,0.0,0
19.182,0.22027034046903538,0.11013505442342422,0.16520261606055153,0.22027016482926245,0.38547297790000157,0.27533796975099173,0.16520279510484248,0.05506747943679399,-1.8785024028059958,-2.1680673134120343,-2.720574565248645,-2.550386313844965,-3.4894686628979827,-3.02531117482781,-2.8885163497243282,-2.3633331441471404,0,0.0,0
19.242,0.2790818186113059,0.13954080846415284,0.2093112376101312,0.2790816505315668,0.4883930572898882,0.3488523142633802,0.2093113930682774,0.06977035823864762,-1.7471528889984322,-2.1116463380211123,-2.648594675379668,-2.5038116935581116,-3.4371071059223213,-2.972928047210052,-2.7795077214977266,-2.3289944739960027,0,0.0,0
19.302,0.3447611258974058,0.17238047680563387,0.25857073199993,0.34476096888099583,0.6033318432479713,0.4309514446515275,0.25857086440569405,0.08619019521484952,-1.6003915178640646,-2.048605227965536,-2.568169046942195,-2.451772251539264,-3.378601717361707,-2.914398560536204,-2.657708590084963,-2.290626686518501,0,0.0,0
19.362000000000002,0.4165482901313744,0.20827407291603828,0.3124111193949094,0.4165481465262167,0.728959383247184,0.5206853959194667,0.312411229938228,0.1041369967761888,-1.4398692112124223,-1.9796531345002046,-2.4802023903975887,-2.3948533814189763,-3.3146106262328985,-2.8503811141091764,-2.524489076943426,-2.24866138275283,0,0.0,0
19.422,0.493261940068683,0.24663091090700204,0.3699463708613604,0.4932618112798518,0.8632082765337536,0.6165774542035846,0.36994646112778296,0.1233154197122344,-1.2682293799528854,-1.905925530477529,-2.386143302471064,-2.3339923987626787,-3.2461876102984877,-2.7819299190557025,-2.3820429831882772,-2.2037896294294606,0,0.0,0
19.482,0.573340377831842,0.2866701416646449,0.4300052126116606,0.5733402644936264,1.0033455508897593,0.7166754973086481,0.4300052844427184,0.14333503924721913,-1.0889567417834585,-1.8289192703824106,-2.2879014179465638,-2.270424934056909,-3.174721828279186,-2.710434705725484,-2.2332623213236404,-2.1569224355311962,0,0.0,0
19.542,0.6547480301874488,0.32737397847261845,0.4910609644466047,0.6547479323213872,1.1458089523662978,0.818435058808437,0.49106101982437844,0.1636869618479179,-0.9065959326897711,-1.7505864945397718,-2.187967209356561,-2.205762449162117,-3.102024967796624,-2.637707907523755,-2.0819187437243554,-2.1092479038386815,0,0.0,0
19.602,0.734696413464212,0.3673481794563944,0.5510222634267793,0.7346963306164931,1.2857186338775561,0.918370534198601,0.5510223043812771,0.1836740664402099,-0.7273518046187394,-1.6735924859158937,-2.089740951660224,-2.1422050940924615,-3.0305705498306863,-2.5662240639336797,-1.9331617374079098,-2.0623881665236676,0,0.0,0
19.662,0.8093536144033849,0.40467678799840245,0.607015174499513,0.8093535457707036,1.4163687466843944,1.011692031962908,0.6070152030317424,0.20233837461357668,-0.5597881923679437,-1.6016158241948701,-1.9979156483037954,-2.0827894795377007,-2.9637724872373994,-2.499398493769444,-1.794098539676381,-2.0185820635088914,0,0.0,0
19.722,0.8739334744712625,0.4369667248816671,0.6554500787185701,0.8739334190090099,1.5293835129305604,1.092416853968425,0.6554500967431535,0.21848334668814207,-0.41466683507820207,-1.5392791948207145,-1.918388759812415,-2.0313315607983453,-2.905920871940415,-2.4415230559066665,-1.673660456976194,-1.9806430318082642,0,0.0,0
19.782,0.9227818798951807,0.4613909332942279,0.6920863907538418,0.9227818364021164,1.6148682331874977,1.1534773580162028,0.6920864000625413,0.23069545421043164,-0.30473731384100144,-1.4920591570971216,-1.858147089085678,-1.992352152751658,-2.8620982350411253,-2.3976823748876934,-1.5824285314026758,-1.9519041890281696,0,0.0,0
19.842,0.949339914065123,0.4746699550197992,0.7120049231798901,0.949339881251278,1.66134480314475,1.1866748983473887,0.7120049254207708,0.23733496804411472,-0.24486441360812314,-1.46634085228525,-1.8253365760703044,-1.9711220905340907,-2.8382303187562314,-2.3738046337632124,-1.5327392399843507,-1.9362516295615178,0,0.0,0
19.902,0.946165189532158,0.4730825964254865,0.7096238854604732,0.9461651660678934,1.6557890445934325,1.18270649064589,0.7096238821348032,0.2365412913587128,-0.25206087154616985,-1.4694320706216362,-1.8292802439648066,-1.9736738416430892,-2.841099131326325,-2.376674634368111,-1.5387116729567207,-1.938132986001313,0,0.0,0
19.962,0.904840188688266,0.45242009881271994,0.6786301394651093,0.9048401732504248,1.5834703015978737,1.1310502378872436,0.6786301319066526,0.22621004480391882,-0.34590886336397036,-1.50974429998051,-1.8807091747851905,-2.0069509588171095,-2.878510969588222,-2.414101889098662,-1.6165973307316623,-1.962667618118313,0,0.0,0
20.022,0.8142281138756425,0.40711406353605856,0.6106710871089254,0.8142281052332963,1.424899178166094,1.0177851429604712,0.6106710763623716,0.2035570290787217,-0.5535653145673946,-1.5989427480932241,-1.9945054325511666,-2.080582890063305,-2.9612917511510215,-2.496916775022214,-1.7889340963933444,-2.01695514913131,0,0.0,0
20.082,0.6578056087585777,0.32890281252084747,0.493354211228905,0.6578056057523435,1.151159800701316,0.8222570104221151,0.49335419819281245,0.16445140516398796,-0.9204948657014352,-1.7565566685869671,-2.195583755772786,-2.210690731026974,-3.1075656355620835,-2.643250917517118,-2.093453661742659,-2.1128813804766233,0,0.0,0
20.142,0.436376757115934,0.21818838670162152,0.32728257377103226,0.436376757917032,0.7636593160066548,0.545470945229102,0.3272825608430125,0.10909419335904498,-1.4527159731711174,-1.9851712811058595,-2.487242275953319,-2.399408538984004,-3.3197318380627974,-2.8555045200062197,-2.5351508192442718,-2.2520197168169713,0,0.0,0
20.201999999999998,0.2389978052909494,0.11949890622294591,0.1792483566089056,0.23899780574422444,0.41824615548040184,0.2987472560845288,0.17924835093265262,0.05974945314449863,-1.857713098618867,-2.1591370729691963,-2.709181738863393,-2.54301458995176,-3.4811810943539894,-3.0170202831834985,-2.871263145930731,-2.3578979507339137,0,0.0,0
20.262,0.3977068297083964,0.19885340857400538,0.29828011594443826,0.39770682382343164,0.6959869510273776,0.49713353891917916,0.2982801257601129,0.09942670275233427,-1.5920586743579126,-2.045025711933252,-2.5636024499414867,-2.4488174254228197,-3.375279823260975,-2.911075388519904,-2.650793099867578,-2.288448039530361,0,0.0,0
20.322,0.8791868757650704,0.43959342970567966,0.6593901483108171,0.8791868673179583,1.5385770301645219,1.0989835971605229,0.6593901610679347,0.2197967126269596,-0.5573625850457243,-1.6005738885838705,-1.9965863643272943,-2.0819293468986846,-2.962805496813779,-2.4984311523219076,-1.7920854661310333,-2.017947885387007,0,0.0,0
20.382,1.5674763832588459,0.7837381839463984,1.1756072790411873,1.5674763741130062,2.7430836666207488,1.9593454815825597,1.1756072909924884,0.3918690895309801,0.9856017912712954,-0.9377963356624196,-1.1510379569332723,-1.5348167744776344,-2.34771358890608,-1.8830858717187422,-0.5115594323355658,-1.6145713616500608,1,0.125,0
20.442,2.47088876217359,1.2354443745200716,1.853166564123244,2.470888753384617,4.3240553288639685,3.088610955024692,1.8531665743096488,0.6177221848906326,2.999084472928949,-0.07290849588134131,-0.04764431859308247,-0.820865300180753,-1.5450528636492924,-1.080094510152632,1.1594558108501805,-1.0881874349125518,2,0.25,0
20.502,3.204682547620096,1.6023412683776934,2.403511904306749,3.2046825397565564,5.6081944533638755,4.0058531865337486,2.403511912716156,0.8011706320567367,4.748053026210126,0.6783577795357963,0.910794904343842,-0.2007066617337113,-0.8478388368677665,-0.38259328379978913,2.610947367911486,-0.6309553241732669,2,0.25,0
