t_center,z_mean_emg1,z_mean_emg2,z_mean_emg3,z_mean_emg4,z_mean_emg5,z_mean_emg6,z_mean_emg7,z_mean_emg8,avg,consensus
0.11699999999999999,-3.627797280425906,-2.4814140200482275,-2.4589250614314495,-2.5101457770187454,-2.6201309459280093,-2.8903585932994496,-2.7739060263997657,-2.456828357779754,0.0,0
0.177,-3.627905043554468,-2.351168588706536,-2.236928901695054,-1.339974747096153,-2.014841131887289,-2.6585395108868375,-2.76495360607192,-2.441805968347994,0.0,0
0.237,-3.6912975030326822,-2.0970474189094594,-1.7832918675768472,-0.3513413762660327,-1.3520599264809645,-2.2557055591972612,-2.7044173694456437,-2.3275798892975597,0.0,0
0.297,-3.564829562555246,-1.9930195373017827,-1.3524763456487605,-0.27531856503694385,-1.0147069703934577,-2.153990607871529,-2.6619118048007766,-2.252302099065655,0.0,0
0.357,-3.117308124244943,-2.185906757716718,-1.1485588946885696,0.182829963879827,-0.5266080287296231,-2.1990208710536323,-2.6659866871227593,-2.269975274180878,0.0,0
0.417,-2.984913391335786,-2.356127627592514,-1.3688578699927885,0.35105759371746087,-0.60049964962674,-2.2465506883547888,-2.660960106451569,-2.305890433543738,0.0,0
0.477,-3.307007338682139,-2.252820752259017,-1.9455096740628026,-0.881894672652843,-1.5264896634604155,-2.403885922143884,-2.6130069464606014,-2.2868057707945395,0.0,0
0.5369999999999999,-3.3293556190227065,-2.020547797363428,-2.434236407177258,-1.6309341188568796,-0.8199891576462018,-1.9903286254620303,-2.4318360936526404,-2.0260083950455896,0.0,0
0.597,-2.628303026278119,-1.6819782741706166,-2.5324880193112986,-1.0997689907940604,0.6579364700312681,-1.448542238674525,-2.2865132128104886,-1.6818886501885901,0.0,0
0.657,-1.1141365123309468,-0.899157181370443,-1.7455500450185555,-0.1689980260700037,0.679842412270499,-1.1881416671054956,-2.180448020787694,-1.2763661075723918,0.0,0
0.7170000000000001,0.08315256330203767,-0.20328185492482165,0.03147469200382672,1.580038235766646,0.879692106362061,-0.08739867242360433,-1.3042672428201256,-0.5448169963313104,0.0,0
0.7769999999999999,-0.6385996526874863,-0.7410298936112815,1.0007816440469117,3.331275568062418,1.6005856735700232,0.9045279455612586,0.02709089460186879,-0.09565621849296024,0.0,0
0.837,-2.2336729019552437,-1.5697054725951176,0.2968821245577489,2.3279283747842747,0.915572307993915,0.30932067778354194,-0.23995947839926876,-0.7981045841388282,0.0,0
0.897,-2.1021323690849987,-1.1400922288181417,-0.45842948767855884,0.3076618971918241,-0.5329824665072428,-0.8479709912611441,-1.6507836963934148,-1.4249868307931859,0.0,0
0.9570000000000001,-0.6731075199685477,-0.2963042727517856,-0.8212173634123494,-0.1296678258832248,-1.1445170921619627,-1.6456326434173594,-2.086383043279932,-0.9613378584749984,0.0,0
1.017,-0.56199771824495,-0.3722515504591694,-0.9460859718737852,-0.24290016316141616,-1.0500389617639019,-1.4985756638551655,-1.0503060590787734,-0.6799195461367145,0.0,0
1.077,-1.0473123347137516,-0.4461963380081942,-0.22889223207316545,-0.2286395799428572,-0.8514967335048578,-0.48034142866434526,0.8798538596432502,-0.5077217752180346,0.0,0
1.137,-0.6185582210249799,-0.08227635102788554,0.7984137312459195,0.5421859237447866,-0.78267512244731,0.1560244887494561,1.570476566814043,-0.14743290054552133,0.0,0
1.197,0.3166857006851704,0.3840990663597988,0.9899000543997136,1.3190521358127005,-0.030120045903215247,0.19971320473105614,0.7342674760486679,0.3183580145581353,0.0,0
1.2570000000000001,1.0779132248342462,1.072067052233209,1.3173879532594128,2.2384235085378963,1.4975102101523963,-0.07043876377880792,-0.39904901619579497,1.0645151045579249,0.0,0
1.3170000000000002,0.5268035888529533,0.7195224609942228,1.6528080057684678,2.697488755229448,1.578800670982923,-0.8114230019979448,-1.2702390839996427,1.1266769356142685,0.0,0
1.377,-0.6170458015623773,-0.47870531023246965,0.5670038102676116,1.4514124261023316,0.051322982976037344,-1.2853140886518613,-0.858974012202677,0.30612054838651853,0.0,0
1.4369999999999998,-0.22341016142186831,-0.6690871261478738,-0.3272205177762931,0.744187291379299,-0.1956674932376454,-0.6142103538964353,0.7466195387602678,0.11016441611040151,0.0,0
1.4969999999999999,0.9622234438647205,-0.0573571160450553,-0.6340806359990864,0.7422893019358553,0.2877116693526108,-0.026335677058063015,1.3224465543961175,0.4530852195570209,0.0,0
1.557,1.0543081292078385,-0.12917194914683164,-1.4362396855958528,-0.5867040491342682,-0.4610014609015305,-0.32488726984423655,0.09948384213551142,0.09931708927168016,0.0,0
1.617,0.3526352389830943,-0.8521301106640836,-1.6287684901348243,-1.4697027365396902,-0.9540067566113967,-0.2615652071227234,-0.3952192375367965,-0.3585617431030293,0.0,0
1.677,-0.25157395151328604,-1.2253926337744623,-1.120973198515335,-1.111180967006036,-0.6221550812584452,-0.33097278513969314,0.34562822913993224,-0.553508884016224,0.0,0
1.737,-0.11450325436758714,-1.1242498772523044,-1.2106263657493839,-1.1740798123966318,-0.2926132424588923,-1.0393922780759157,0.5265604200840698,-0.9306068273544157,0.0,0
1.7970000000000002,-0.3350323377324469,-1.1049650667730093,-0.6587635291885318,-1.0020053752600055,0.11793520842374838,-1.1287537429537453,-0.0025514500200489384,-1.105593218465712,0.0,0
1.857,-0.5598614462459509,-0.5841775434491899,1.2278465451346448,0.24384513613127068,0.5440054379224638,-0.11856051554047871,0.23648566768762394,-0.1558068597780364,0.0,0
1.917,0.4095738354575476,0.42325021754007003,1.8814724689986262,1.152340798424505,0.8601226745647063,0.6054499991926168,0.12813760177215847,0.7716515695023207,0.0,0
1.9769999999999999,0.8315582980598945,0.6756325301681144,0.6264276729378385,0.6759833347133016,0.7813336944947257,-0.23806725477667637,-0.9971808638463937,0.33591242176807584,0.0,0
2.037,0.1016218005470233,0.24354949514061022,-0.7034234461277112,-0.6177673606530916,-0.010015091787984709,-1.2617598159208756,-1.3046498542498797,-0.6605205350912745,0.0,0
2.097,-1.3024587200030286,-0.6406945228370619,-1.0811600352089492,-1.3222875325752714,-1.1885614233152295,-1.5238262753731975,-1.0271628139252633,-1.2339453179104354,0.0,0
2.157,-1.8027409781745627,-1.3561746177192002,-0.7247857533498133,-0.3946677268514868,-0.7935204964325951,-1.173565103562249,-0.641538432262395,-0.9605933392984847,0.0,0
2.2169999999999996,-0.5712513438312848,-1.453497279801395,-0.38525481856797567,1.1317593245775317,1.3366337329814655,0.06609197366802007,0.7664599820238859,0.07453832962916457,0.0,0
2.277,0.07793272496037766,-1.3341346523044237,-0.0794939896076851,1.8837670946748173,2.0589706748802077,0.7305721562513816,2.4980279906218876,0.7617314268610597,0.0,0
2.3369999999999997,-0.6826853029093609,-0.6748688095446381,0.8869408357425383,2.528307076355984,1.712123388598961,0.70102448666648,2.787027133601058,0.4917872853352432,0.0,0
2.3970000000000002,-1.733506301426291,-0.35908268435166074,1.0015484031646278,2.1699817576772715,1.6680763208009266,0.7976334454489064,1.289814873326965,-0.4272260910825109,0.0,0
2.457,-1.7663168499335313,-0.6395416368910328,-0.003015367629934068,0.5321190792192377,0.5460536629438639,0.1546129897688774,-0.3227136610924278,-1.0142326183443748,0.0,0
2.5170000000000003,-0.3127444688894902,-0.13265563396225474,0.19247707567712444,0.24347328031929974,-0.2471866523860771,-0.04826928141553855,-0.4576380911513365,-0.39846426421086845,0.0,0
2.577,0.6694696353489934,0.29693412929196056,0.6384215316795309,1.3126765309529038,0.15480612772649355,0.39309256799182374,-0.5460156822552781,0.1692288856642559,0.0,0
2.637,0.7185033249270831,0.525624396415734,0.7986311371663191,1.5784345472299393,0.3145080846456636,0.5532395432996547,-0.8773094950139552,0.23713653646404564,0.0,0
2.697,1.3834284986945218,1.6466424667475852,1.4462065729504474,1.1266834452628711,1.4029971133346681,1.4139529841104548,0.29823576106161104,1.239094014354077,0.0,0
2.7569999999999997,2.3477307310080238,2.434826083314723,1.4283966192725137,1.1601292031641337,2.7458303204951986,2.751479096712203,1.3859074754655882,2.744202847814824,0.0,0
2.817,2.9737440611923867,2.0126043697552367,1.221250293953382,1.5877730674529855,2.2279623900777366,2.967274684590937,0.620727558602518,2.7548547587580674,0.0,0
2.877,1.9838996850280426,0.7645130595291256,1.1744807265278667,1.29595034232056,1.0244837836089569,1.9812109117980679,0.22916197461765267,1.4659482855311854,0.0,0
2.9370000000000003,0.6427747115369682,-0.14190173517071222,0.4434538331532151,0.13916849455670344,0.051048685001918066,0.5772748823614118,0.924725572017317,0.9910944080944429,0.0,0
2.997,0.6948142639422904,-0.1937049555231848,-0.44913861122938553,-0.751474868697394,-0.24259787252204815,0.3957839289344795,1.5787181643065615,1.7488672959811649,0.0,0
3.057,0.6154971823407195,0.2711391442221125,-0.7988706797263373,-1.418210100315713,-0.3882915436513706,0.6400281608378694,1.429431525917728,1.3553402715082086,0.0,0
3.117,0.6235260345101568,1.4691223502800772,-0.5174991413141476,-2.071893114899479,-1.054835162779663,0.15472027492827867,0.48184325109252807,0.018450973049097236,0.0,0
3.177,0.26715500686442323,1.7597723734227133,-0.4582237806435466,-2.0076181465932437,-1.1844725084583054,0.36538844357209554,-0.0001040949903513555,-0.7908728141803024,0.0,0
3.237,-0.6498835637851685,0.18643468739509236,-0.9616565992960014,-0.7480850017735173,-1.1210377118890216,0.7093493213471401,0.24861017838535918,-1.5706083006015013,0.0,0
3.2969999999999997,-1.0473359641953506,-1.2323955545030065,-1.3807634020438642,0.01723193670500714,-1.40308230372346,0.2282658815223951,0.21619479698065933,-1.7776682577879601,0.0,0
3.357,-0.9249466424804741,-0.754297675460398,-0.79205096379496,-0.1386814692497636,-1.106849714813225,0.265985878316408,-0.16790528543576363,-1.0388167741328134,0.0,0
3.417,-0.22227070991972056,0.36488203239150474,0.47723581667264314,-0.030469878047007525,-0.21750492240030309,1.2411848001040549,0.40565681388176794,0.10555772018450764,0.0,0
3.4770000000000003,0.34507738681233974,0.4477245821009122,0.7068192097965617,-0.6410206909082828,-0.7107889183660193,0.7494927223963251,1.198023785232028,0.9309069697499304,0.0,0
3.537,0.48674689115434205,0.48753528203755847,0.15038746067628864,-1.0222942548963274,-1.679675498206917,-0.7243343459288761,0.5914894315738609,0.8189868563235546,0.0,0
3.597,1.8758191097779269,1.8440929581705126,0.6596836779089382,0.5120019745003503,-0.02617613633950903,-0.2708011660631448,0.17888061139748124,0.6785991280191691,0.0,0
3.657,2.9200289578198295,2.224525488490182,1.122038425235486,1.4088190191724017,2.1021758855338852,0.8539368774305461,0.749782263534271,0.7828066911533943,0.0,0
3.7169999999999996,2.6422746565324675,0.9662815575720818,0.41870213215621127,-0.25239855668207706,1.3078246281201478,0.6571022240316114,1.2727759149386617,1.2173554405213005,0.0,0
3.777,2.1712808556153758,1.0033122482246888,0.44245471408515086,-1.6372422214815934,-0.6354393772312978,0.16674127697072325,2.1514939950650738,2.316076435476195,0.0,0
3.8369999999999997,0.8363486114224479,2.319794179496941,1.3045670829905651,-1.2143424874400857,-1.0227676156352445,0.5479100117181305,2.0645588260555585,2.00732138521532,0.0,0
3.8970000000000002,-0.11298659019863744,3.3970897703869904,1.5544138689834677,-0.2622047589176684,-0.06961063263597997,0.9461907891844271,0.6844507441283553,0.05505526138028568,0.0,0
3.957,1.027241058113635,3.535023249605588,1.224077386382709,0.8849919534321833,0.871680121068381,0.09336135935293903,-0.14741098090732113,-0.6514604086431987,0.0,0
4.017,2.818230673921479,3.5597579448711976,1.4401781595471623,2.152129201508735,1.1185791994466883,-0.8877621539732211,-0.55972249610907,0.2131624184427324,0.0,0
4.077,2.46335829851693,2.998218351412211,1.2163821168594084,1.8815666246715441,0.48636611084236203,-0.7771469056690444,-0.8344241611932702,1.0041509224892116,0.0,0
4.1370000000000005,3.0483173967666244,2.16049696541096,0.32609230213246176,0.5865223234226385,0.4948850334367571,0.5414054175909749,-0.472406234935367,2.2072241797356087,0.0,0
4.197,3.927225514616993,2.047170347912532,0.22325459786977775,-0.07442594049447342,1.0220986226972066,2.100593715421818,-0.3034252258598204,2.5579772782553167,0.0,0
4.257,1.340942074813188,1.174257713762797,-0.26470226796334456,-1.0462687357377762,-0.23854201902371827,1.5626985884832718,-1.4322095876129746,0.3397848795212262,0.0,0
4.317,-1.0786039058756385,0.00929792827095297,-1.0731114550530034,-1.448771391996262,-1.3591038448389725,0.09796058789958528,-1.670622486197171,-1.6030629536129943,0.0,0
4.377000000000001,-0.9070875221619322,-0.05560125570882201,-0.7212896705217693,-0.39615618927052143,-0.1489434384823214,0.6724587807330301,1.0397480266346752,-0.6000173978947533,0.0,0
4.436999999999999,0.06825805022109366,0.09694753509525296,0.2535011600201714,0.444351135348724,0.8873758055052597,1.4557064501035637,3.271903938003352,1.1910769044895542,0.0,0
4.497,-0.23961520639027722,-0.5118992019723505,0.9476917764337774,0.018718623405641666,-0.17610607215563542,0.20263129596161544,1.9982879493027228,0.6847018492373058,0.0,0
4.557,-0.597068662123596,-0.6343144397452879,1.507019617495178,-0.6091930774249398,-1.5022755424673104,-1.0927100962793739,0.35939799523494914,-0.3330309372630265,0.0,0
4.617,0.04323739115424217,0.16829617485357062,1.321318009785432,-0.6325079889311408,-1.1262552709817355,-0.487820249013953,0.49010214328136875,0.48020585345194694,0.0,0
4.677,1.1930743425729091,1.2179215266830505,0.584064988604,-0.531754906203987,0.9419332508436655,2.0612240809606113,1.4470257681324206,2.04324216224717,0.0,0
4.737,1.1587775134829477,1.6517524727917137,0.2559758922731134,-0.6020278826492299,1.7897615612796507,3.0536393374264783,1.1221064368044558,1.9651722389468713,0.0,0
4.797000000000001,-0.3285335804299863,1.2299929034531416,0.17078550333037726,-0.2808314556637527,0.6745588425941517,0.9431216778785089,0.1369475961018234,0.6623598144135703,0.0,0
4.856999999999999,-0.7102126539220287,0.5432366044444488,0.415334325708617,0.8665857556982957,0.7019770816339488,0.41612995162037336,1.3389336956400906,0.6793542648534122,0.0,0
4.917,-0.01687212379051392,0.3827391830936436,1.5000996589422748,2.4785983477914217,2.259169045639461,2.4204788325386786,3.232467478763908,1.3249882162344016,0.0,0
4.977,0.5180471806076486,0.7953161763798321,1.9101852088217208,2.705241371785286,2.6375811532033926,2.966163985905965,2.9080355564656792,0.8677376280444333,0.0,0
5.037,0.8596530462553359,0.9026502858204878,0.6266725585601108,1.1048720005563164,0.9789497359041185,0.9406323769446754,0.9718157618945068,-0.038373531993599296,0.0,0
5.0969999999999995,0.8302573707875359,0.43768922862386633,0.04327544257451361,-0.04081373449284235,-0.41522348196425,-1.0519902925241793,-0.06875964543481615,0.10770828602219613,0.0,0
5.157,0.5986125387000776,-0.3271245481538041,0.41240405008655473,-0.282004912734226,-0.6757144586742078,-1.8417618218889438,-0.0006341684461376255,0.8138650796344851,0.0,0
5.2170000000000005,0.33758433545095423,-0.6012197293394241,-0.20284014606147135,-0.6861311975544714,-1.1214025456087786,-1.6003127030987256,0.19135863453532453,0.5628352061148681,0.0,0
5.277,-0.4664664392378668,-0.9021133231657354,-0.8190667312141805,-1.1562953441107002,-1.8042645924737952,-0.3170869766390161,0.4828464602482196,0.023631966691789474,0.0,0
5.337,-0.8717183446183344,-1.0943038186132528,-0.24506876320865623,-1.3442104262495427,-2.0646706126378764,0.20083052501639054,0.09325790774704974,-0.2916041858037993,0.0,0
5.397,-0.468402424013467,-0.6701023575594404,-0.033266188530107856,-1.2513235533681857,-1.9077300052137944,-0.45631203055649056,-0.7584103189305061,-0.44170759707313006,0.0,0
5.457,0.33761691985068637,0.1323439447980548,0.06745934199894642,-0.21569935424479192,-0.3667637110074136,0.569796281583656,0.4243487062499713,0.6713200940572622,0.0,0
5.5169999999999995,1.5366680929442016,1.5386531561134476,0.838178884359522,1.533386566078888,1.8713843243006407,2.821437749266281,2.579977728703459,2.05738867482937,0.0,0
5.577,2.0452265668706944,2.360371041315404,0.7642014105987659,2.008439307831336,2.063326619826054,3.175850898190092,2.8315041924156596,2.226571743351994,2.18443647255,1
5.6370000000000005,1.6161372032224506,1.9067751778901367,0.26721149203112987,1.6172459402679547,1.054848584767843,1.7167229589158606,2.0563628679615626,2.038786888436303,0.0,0
5.697,2.2441934032846484,1.3792190132272395,0.4477387308442613,1.1213419018110955,0.33523130650131905,0.7061017033234122,1.8426179669584826,2.1991643244579384,0.0,0
5.757,3.995772920587941,1.731601814782753,0.7764254961863276,0.27924280696786236,0.16935605750675853,1.2052845386188764,2.5852090617531336,2.757412092246559,0.0,0
5.817,3.625600621682747,1.3735091305665088,0.3582039155677664,-0.44436994315990225,0.8138209541691365,1.93731706164902,2.6139444876268785,2.557189310265951,0.0,0
5.877000000000001,0.9308294339610094,-0.40389568076616955,-0.50135992971289,-1.0612967878923856,0.7002346097253516,1.6625489230966322,1.0832882372006973,0.7688126895939266,0.0,0
5.936999999999999,-0.34409926406632757,-0.9732915865760684,0.31866608240796007,-0.38803761272113685,0.2672249942612927,0.6852107823472484,0.21367902702893035,-0.5048688918399927,0.0,0
5.997,0.3954671569221924,0.007666238977717871,2.0989606715796643,1.2578526108925114,0.6414682580266838,-0.2612190656134508,0.26897446966224686,-0.09335250701867871,0.0,0
6.057,0.783179862666947,0.7000182223453071,1.9331508812924676,1.3221152298327168,0.9121069055646832,0.16249227612636846,0.753246066936676,0.7905663578750323,0.0,0
6.117,0.5660548460921726,0.40297528078707695,0.46904634845951115,-0.28280142768321176,0.42065854252634827,1.4747678751630853,1.8706164419488465,1.805917759610037,0.0,0
6.177,0.4918118512644533,0.2654915530261836,-0.29428385840128574,-1.2175963164419674,-0.9581601412126491,1.102999811843407,2.275280695963176,1.982227595595856,0.0,0
6.237,0.47291637027961775,1.6558623270120882,0.12934707934510922,-0.7173667648189994,-1.7360612798172352,-0.9055136775035103,1.671195201410172,0.1899619131043179,0.0,0
6.297000000000001,-0.16028707545963025,2.166647406516444,0.6002234053784148,-0.12475876373635782,-1.4360229195353436,-2.128598087755826,0.8407500737836876,-1.1702074313763993,0.0,0
6.356999999999999,-0.8685743587146831,1.071183299778452,0.4440234716457498,-0.2728371514341474,-1.4111307418466952,-1.449540252327526,0.6487259844700267,-0.637471075375308,0.0,0
6.417,0.016582795900689156,0.9488527816293367,1.141121440674098,0.009076714679167597,-1.3900218904152946,-0.17565250905156304,1.011367570466515,-0.16696714587910977,0.0,0
6.477,1.447358142526156,1.2789158244976992,1.3873086559826044,0.5928134558969499,-0.8244572226675996,0.05119455699565578,0.13410529558225534,-0.34835227665825313,0.0,0
6.537,1.3731762556496154,0.9095079661529663,0.8199518647639951,0.9497724383558607,0.2591848550645726,0.11051605282421588,-0.4961572085125241,0.13890500506597173,0.0,0
6.5969999999999995,0.6056770108616248,0.46941448201471636,0.7851565161049542,1.031063110916685,1.2094282206809928,0.7976791411463874,1.0226467738771299,1.5253846671606135,0.0,0
6.657,-0.10519381998313054,0.028844167667054738,0.4285467189831412,0.16447984371238136,1.0448944397923758,1.0462243228431367,2.746285369696597,2.224052263940512,0.0,0
6.7170000000000005,-1.2711878110499233,-0.5269277197075923,0.14861383874956366,-0.4461521065730428,0.367459800384377,0.894461673042858,2.4918867478081466,1.4594489992897717,0.0,0
6.777,-1.6697764116380978,-0.4546817449173825,0.7937234397984702,0.5401477352922727,0.6660356552775996,0.7763526153206776,1.6420081785485963,1.1433947784668095,0.0,0
6.837,-0.5126716733962827,0.013756598037027437,0.6673987638424655,0.814745836907659,0.6791388176436474,0.185313319354988,1.2021770608097333,1.3963032364015353,0.0,0
6.897,0.7230148220471037,-0.034250401504929785,-0.31605089659130114,-0.0347371626496844,0.21471837230193902,-0.18861039174056124,-0.01504713428082031,0.930420505439472,0.0,0
6.957,0.43932650337913476,-0.6621260575297502,-0.35327189624579347,0.4414057371574663,1.1021153432438706,0.13195187743330805,-1.18325636336396,0.13269170288136836,0.0,0
7.0169999999999995,-1.1768756761493042,-1.416972048288076,-0.4516456725782305,0.46547355982511407,1.4517815716733555,0.09410757655220753,-1.2873730414979285,-0.6736963831902084,0.0,0
7.077,-1.9683435724295961,-1.5502423927215911,-1.0224715671495377,-0.7583881254863942,0.2849982288480324,0.1312671831039324,0.22454698964047234,-0.701029865625662,0.0,0
7.1370000000000005,-1.0712141175439112,-0.9182944703045858,-0.680382826654009,-0.6581242739407457,-0.5173880032905376,0.49813317048023703,1.9111728490173585,-0.15230995672043457,0.0,0
7.197,-0.6102924757593127,-0.7306837351256069,-0.14410491780267096,0.11777996200797097,-0.4378626672815334,0.30417900111286417,2.1975128185843467,-0.05763983455427879,0.0,0
7.257,-1.3899830260016632,-1.2278310524965412,-0.6078072945106786,-0.13432075397078044,-0.16489600757227693,-0.18470444040987266,1.4002029360402644,-0.38985256222031395,0.0,0
7.317,-2.103271151599201,-1.6053104249255776,-1.3096886786607576,-0.900153232902404,-0.5650258476279223,-0.9610624577368633,-0.38447913420041524,-1.104201312201094,0.0,0
7.377000000000001,-2.5215458880240393,-1.7820606964371806,-1.696158773432132,-1.6601971806400393,-1.6744292354022783,-1.8302950820710429,-1.7511595802081292,-1.7998663450025003,0.0,0
7.436999999999999,-2.6772722754266556,-1.9047625506861665,-1.8651531452831147,-2.090506701320328,-2.42768166580711,-2.2022285308407006,-2.229518208787247,-2.0981667858180777,0.0,0
7.497,-2.409845893143222,-1.867215653518575,-1.8124105141374602,-2.1403938895443315,-2.416215190857009,-2.1962987680706934,-2.3242048415784526,-1.9934259504882046,0.0,0
7.557,-2.5108374110221825,-1.9289822202855003,-1.8773235679213969,-1.9884762781318701,-2.3298112495018892,-2.2487510868120486,-2.3523796279745124,-1.9556124553760057,0.0,0
7.617,-3.0581571898640765,-2.201724164052417,-2.2331147855668294,-1.892840360904944,-2.330776766782371,-2.399900413599111,-2.5529010105065613,-2.1778065688728407,0.0,0
7.677,-3.399623379500579,-2.3264119091833386,-2.4951232298046535,-2.1157949814555383,-2.2311713262399038,-2.4892513781730856,-2.694628498612495,-2.3083535177360814,0.0,0
7.737,-3.398557945093453,-2.305869869841672,-2.4894670468050175,-2.434883479420285,-2.1837966009641807,-2.527474695137472,-2.6549323341350632,-2.262050006076175,0.0,0
7.797000000000001,-3.236460960946961,-2.333712222625465,-2.416029299941479,-2.548603445668724,-2.2579732827774603,-2.491184698165156,-2.573115239999602,-2.203858896012965,0.0,0
7.856999999999999,-3.317162928679043,-2.463526529389821,-2.457698872001697,-2.5609736302508654,-2.354180904611071,-2.5354626217239047,-2.6376236614098167,-2.3206597505758877,0.0,0
7.917,-3.5535992261847755,-2.573060486319247,-2.4839725672683834,-2.5828134611795757,-2.433613257181447,-2.634618610738288,-2.7534305824273684,-2.422597118404476,0.0,0
7.977,-3.5785027503080493,-2.543207359775689,-2.3951193728908375,-2.5483596336185186,-2.5701114972554833,-2.7156082444816256,-2.756382208528757,-2.3416825750597003,0.0,0
8.037,-3.497085403945403,-2.400595445423384,-2.366732272374735,-2.336682227009263,-2.4971403592842276,-2.6390985666342344,-2.672330401082099,-2.262618207332061,0.0,0
8.097,-3.5020583407876593,-2.3486424941759103,-2.4459003806609467,-2.167361016022846,-2.011000357291228,-2.465306183692125,-2.651756869763539,-2.31219191424341,0.0,0
8.157,-3.540005217846556,-2.438749995489008,-2.496937244904929,-2.1410963387691013,-1.6521393368685624,-2.488222433317093,-2.7463565150465796,-2.420318959689864,0.0,0
8.217,-3.6053508904331344,-2.5167854760539092,-2.443187505627105,-1.8504622453376918,-1.4697281681221153,-2.5102081441296162,-2.781257061209571,-2.4715116918101834,0.0,0
8.277000000000001,-3.69583261655338,-2.487510060956811,-2.356117405425311,-1.4865666248766702,-1.0798725208320132,-2.38963079831614,-2.731985905273611,-2.449047617367004,0.0,0
8.337,-3.7327503462470943,-2.3727079705428156,-2.3240441945796966,-1.4243828399596834,-0.7141635773270405,-2.3102767874887995,-2.7121071211200065,-2.424176095933594,0.0,0
8.397,-3.757078842489513,-2.317654151452812,-2.41224560575369,-1.704610561640206,-1.016931038355563,-2.381359482537819,-2.6933639500081608,-2.406381398809454,0.0,0
8.457,-3.755263798778572,-2.398141169202951,-2.539338929053761,-1.9646580867046497,-1.614169977764493,-2.3825830689128584,-2.6772798172345293,-2.3807734263152915,0.0,0
8.517,-3.7097545575863715,-2.4985446887542726,-2.535757662850238,-2.0399129533999862,-1.6444416890241496,-2.2385684531648478,-2.7109553383907787,-2.3709122594314826,0.0,0
8.577,-3.7177061160905644,-2.451641522732008,-2.4612354307501025,-2.292691098261902,-1.536857145499825,-2.2550058605766368,-2.743714087145292,-2.3886629881193575,0.0,0
8.637,-3.692873093196443,-2.3404517175386492,-2.393602665147427,-2.496714748575808,-1.5582784948283634,-2.448398211791522,-2.751732270230461,-2.4174041871263054,0.0,0
8.697,-3.460374354985787,-2.301271512704616,-2.2948156983510715,-2.3384033037194065,-1.3730606326452353,-2.5474692479284173,-2.7237924094883486,-2.3752889573612825,0.0,0
8.757,-3.321695266994128,-2.3013929900212715,-2.249172459887608,-2.0033359967122095,-1.486421293319878,-2.582688063137003,-2.690487788632477,-2.324576847193803,0.0,0
8.817,-3.506488083620002,-2.3661408227026217,-2.3302433172503476,-1.7237583005252042,-1.453156026980708,-2.45780611353967,-2.7025632182916044,-2.320291028063951,0.0,0
8.876999999999999,-3.6507684244878735,-2.4034186413123426,-2.296527645352775,-1.6919791661719386,-1.1622353213053809,-2.2216963722039114,-2.6924062998575278,-2.2310282516854394,0.0,0
8.937000000000001,-3.6355271092526813,-2.364325295162858,-2.205442931172883,-2.019074698586807,-1.766482048195477,-2.3241751017025076,-2.650738219170853,-2.1418785943842567,0.0,0
8.997,-3.6390859219466125,-2.4155941574362703,-2.310045837890611,-2.226784523116092,-2.1357306180178335,-2.465711789250462,-2.6523057462208666,-2.221018859328167,0.0,0
9.057,-3.6626162555155513,-2.5110593593682173,-2.4835922031748923,-2.1555130184480267,-1.6938144254769405,-2.50021566929066,-2.722261164510501,-2.3522185528807147,0.0,0
9.117,-3.6647180103949073,-2.4507351236881365,-2.5048177665805844,-2.0565809855738606,-1.3921679478625881,-2.641024065486396,-2.7795980723681963,-2.3940775354764345,0.0,0
9.177,-3.6136106930766156,-2.2877086191683813,-2.4147629427664525,-1.8317437457374164,-0.7446049200112347,-2.577434177574448,-2.7799845986389067,-2.382450932188356,0.0,0
9.237,-3.5370027337982886,-2.3047594030496557,-2.441074639242902,-1.8419106248323598,-0.44035051858377133,-2.4507936870748575,-2.776406620376379,-2.4196019280992798,0.0,0
9.297,-3.5391896874120845,-2.439029942686151,-2.552075949447678,-2.1948845617023083,-1.2892605763423897,-2.558438680307463,-2.752855738758505,-2.4754878394439905,0.0,0
9.357,-3.596403582622239,-2.502117005680186,-2.5681867524075175,-2.372814618403722,-1.6506646688593092,-2.5219976076345048,-2.735485434982205,-2.4784690244185694,0.0,0
9.417,-3.6359856342376395,-2.5295857292644497,-2.4584801230604887,-2.244676454042967,-1.1255598871054533,-2.1978621168453905,-2.7598117818691708,-2.466358545358404,0.0,0
9.477,-3.6020897311969873,-2.461006593627842,-2.321170324903673,-1.9856491369662332,-1.0309926460226102,-2.0753469701027223,-2.745259543984941,-2.4783160455310296,0.0,0
9.536999999999999,-3.5574352270173653,-2.3945441136061567,-2.2926714208798726,-1.895928734270373,-1.3969169877969814,-2.3301067559387225,-2.7092280527396873,-2.5024222706440478,0.0,0
9.597,-3.5800212421267474,-2.411339802380349,-2.279130253382513,-1.9291075688210377,-0.9803729086256662,-2.2942509513596225,-2.715912379757233,-2.4889893724252103,0.0,0
9.657,-3.5489281647192903,-2.391708981068484,-2.312371901557177,-2.0303886569324887,-0.38015644123825004,-1.9945547493159974,-2.7393974518630313,-2.453144629564688,0.0,0
9.717,-3.5192745317660568,-2.3572499050644065,-2.4833241245019515,-2.2977297052374595,-0.9886889635243837,-2.1379358895251257,-2.7839035821058236,-2.4568799376811357,0.0,0
9.777000000000001,-3.618563651440926,-2.3540297454784396,-2.573867736797688,-2.497366542483651,-2.0081145855462923,-2.5567289047000594,-2.829224361090615,-2.4363752611833567,0.0,0
9.837,-3.647203117102744,-2.223605044301798,-2.4873239567516827,-2.504417538299097,-2.242442867320197,-2.7534091091698554,-2.831373749362822,-2.3769210468599717,0.0,0
9.897,-3.562303473571646,-2.0804079948938363,-2.3736501669796093,-2.492769460633754,-2.17788274515149,-2.762094564761535,-2.8089904056171373,-2.368310837186422,0.0,0
9.957,-3.5991590099679716,-2.2056136099506904,-2.322142881623432,-2.6324033922747803,-2.4573080307446715,-2.782782855157673,-2.818767023327354,-2.4173419338123723,0.0,0
10.017,-3.683302236451357,-2.4148258905199063,-2.3426277432811307,-2.7500689519561328,-2.6406280300927256,-2.777619770541332,-2.8589233688291187,-2.4616191917971917,0.0,0
10.077,-3.710271570528489,-2.4737896100034926,-2.377512233541552,-2.570985666192214,-2.2956554631462436,-2.640007761753406,-2.8687661684142767,-2.5007371374116505,0.0,0
10.137,-3.716220829233641,-2.376490253006566,-2.3325511693088936,-2.255742653209296,-1.567335302523506,-2.414729478140344,-2.8386130185008516,-2.5450549251784214,0.0,0
10.197,-3.6831358500913454,-2.2868800348114826,-2.3496307313953513,-2.293027115353057,-1.384300246721292,-2.3466322004897537,-2.8005496977843305,-2.5390096593253113,0.0,0
10.257,-3.631979561480135,-2.3659872839347247,-2.4219085039287758,-2.519175164280105,-1.9466027429344104,-2.5009615926234905,-2.788649478910401,-2.5046619018536984,0.0,0
10.317,-3.601630993724532,-2.468281378636017,-2.491772167425782,-2.5236643953851785,-2.3449718229115515,-2.6248557330492255,-2.799449831171343,-2.500234821858118,0.0,0
10.376999999999999,-3.5657533593954565,-2.4912102961998612,-2.5659491238340224,-2.468830052131906,-2.4145698814869667,-2.6765576497996886,-2.7944099570582535,-2.5211850146768637,0.0,0
10.437000000000001,-3.5097987554865377,-2.4844181570446433,-2.5781397756512447,-2.4674391881207893,-2.408273247359246,-2.735503212349286,-2.7845659391042488,-2.532749343093313,0.0,0
10.497,-3.4792632104117343,-2.4431145079409324,-2.549413413131998,-2.4249820586826747,-2.2768334519368776,-2.733303445070636,-2.7857503707102595,-2.5076485642034316,0.0,0
10.557,-3.462303146623747,-2.430428147370187,-2.440525808526331,-2.4260685282385803,-2.1627510205233382,-2.657961114806392,-2.8031547474734313,-2.4471930762408656,0.0,0
10.617,-3.4827238342417353,-2.4754614022305916,-2.3436574179083034,-2.4507826754184046,-2.073959772431787,-2.5937616057665682,-2.815359962872742,-2.4067272356774554,0.0,0
10.677,-3.5725601655347154,-2.481999198438156,-2.4164802808926846,-2.4717208326818025,-2.0834972042068345,-2.66808612868595,-2.8031869269930563,-2.396038943996443,0.0,0
10.737,-3.70946526265953,-2.439515383761948,-2.4363721253411605,-2.566265296233784,-2.332264278140927,-2.800075516839568,-2.812354329050049,-2.4073016375244123,0.0,0
10.797,-3.790042883143119,-2.4047493551576014,-2.371430931518099,-2.6194227678785857,-2.607225724162632,-2.8636970336958325,-2.810372173154173,-2.4057991178996687,0.0,0
10.857,-3.7411977401248357,-2.447856895975923,-2.4792794792177077,-2.543729444108323,-2.694924671750132,-2.7794091644333054,-2.753166541551115,-2.3444082966727335,0.0,0
10.917,-3.57803395275549,-2.5014620251497544,-2.5861601470740365,-2.4625993890760403,-2.5111470541941094,-2.5518993955292473,-2.66144761289007,-2.311808994875649,0.0,0
10.977,-3.441181961479718,-2.3964466639672124,-2.4871847222117833,-2.412540217816765,-2.2018432079062515,-2.502971879293363,-2.609344759581728,-2.317856953915236,0.0,0
11.036999999999999,-3.4458746777113274,-2.232001548674223,-2.2987189564535635,-2.346042824256863,-2.1470821533712243,-2.7085455128055838,-2.583398237197409,-2.323378262331394,0.0,0
11.097,-3.3528608739987966,-2.146568061445625,-2.1660830144018193,-2.3983429987913945,-2.3912152072818857,-2.7896030792972826,-2.5234154538862086,-2.308393540726676,0.0,0
11.157,-3.092871073536855,-2.1983885671292307,-2.210885145178915,-2.5689214960642786,-2.6279837585859838,-2.665456724225175,-2.4583465189383005,-2.2616072123483444,0.0,0
11.217,-2.964655310994593,-2.3359799946986475,-2.289914396319196,-2.562136408059646,-2.542643440377373,-2.4951016570609026,-2.355228897209599,-2.176600044798445,0.0,0
11.277000000000001,-2.8795544896767176,-2.1898080547150833,-2.1268572208196326,-2.1928537504063903,-1.9205337970838567,-2.2026841416710976,-2.132223083823865,-2.0716406368762383,0.0,0
11.337,-2.55532195945704,-1.7345876320850104,-1.7919574832473861,-1.6108172442321935,-1.0977795509643553,-1.7352734016057692,-1.8033478824951459,-1.9179515990064464,0.0,0
11.397,-2.4124578596867337,-1.6634855464497071,-1.6350394645333128,-1.4513270233627626,-1.036967760472681,-1.4500421524295382,-1.621832119367444,-1.787632217904876,0.0,0
11.457,-2.167540260644222,-1.5984380949792085,-1.2742094526018672,-1.4327335260763148,-1.2189815122539915,-1.4136749281283096,-1.3586435906456105,-1.5609067913671704,0.0,0
11.517,-0.04878731711955283,0.2608077805764548,0.7322027102733824,-0.12703187425786178,0.13137579126458568,-0.6903626082249589,-0.11152499391200521,-0.20312763161826608,0.0,0
11.577,2.196868495747128,2.4804667641654743,3.272059489186198,1.6217040477352225,1.737503560618664,0.013942455486897163,0.8791380571495705,1.4943442231204662,0.0,0
11.637,1.1939672581514686,2.338853965757966,3.6606260619557776,2.0554677011544156,1.3261652954177576,-0.28820257821374345,-0.11360434913815208,1.306965415622428,0.0,0
11.697,-0.2175926217586788,1.5960855404733898,3.1826094629988533,1.9007510194631214,0.4086475680296891,0.361269705689603,-0.1926008634176912,0.8209974545549527,0.0,0
11.757,0.5872234390184911,1.1669126646410766,2.4496120192509823,1.363755920157664,-0.1260293483671542,1.4339671767997582,2.266443760506021,1.8600389986069938,0.0,0
11.817,1.1051488095003623,0.13554660684020206,0.816146195064264,0.7213116733938345,-0.8235036607731746,1.202165536243523,3.563712309539089,2.41319065681448,0.0,0
11.876999999999999,1.5060329888969644,0.18385991331913468,0.6778579414889853,1.8428547343065498,0.16337605211050418,1.136905584201716,2.8941845222467006,2.6056374491916223,0.0,0
11.937000000000001,1.8714568125952045,0.7739463371747366,1.736514276251426,2.690409665389821,1.9872286195127007,1.5711432678598287,2.1357022797909946,2.7036703016536783,0.0,0
11.997,0.653217856496742,0.04664728402131937,1.8649533380695937,1.6063585727218248,2.16015879553907,1.1537760042471106,1.0358083988685538,1.0416092087621818,0.0,0
12.057,-0.058347673771443676,-0.5767463979193329,1.3436355294028315,0.8936118181971203,1.8163331563635976,0.6406826657952166,1.192042210422291,0.22634369752456954,0.0,0
12.117,1.2926870289264663,-0.10123352668417109,1.410730750687491,1.4168497658958916,1.908412026260785,1.4837444757255183,3.063307232586159,1.828848943207319,0.0,0
12.177,2.33886550833768,0.043552131846857356,1.254642380656817,1.2309329736323824,1.1887781890851368,1.6576837969925327,2.7160597211541457,2.834920584299882,0.0,0
12.237,1.2520154386326456,0.1720401003713902,0.9439305423496163,0.5164536645400546,0.6904207666957648,0.8371749498572232,0.7948362579092133,1.8900793403148886,0.0,0
12.297,0.4295045773291764,1.4919959589605902,1.2304733918514161,0.3070833607535796,0.7925296903194932,0.5711155063706884,-0.13914652445500833,0.6588447535589702,0.0,0
12.357,1.3169190992634452,2.4633770979157465,0.6315717803074307,-0.3448545375097615,0.10867383981937184,1.2161824531013683,0.3188178169302585,0.6496979999835479,0.0,0
12.417,1.2141272221277521,1.6720281995308186,-0.4841858276417474,-1.1039066682169099,-0.44682525176191484,2.9985375690968232,2.862263195210763,1.0226945980830497,0.0,0
12.477,-0.6475382649872377,-0.058820411624879755,-1.1215142557241549,-1.355845995914305,-0.37014564707408265,3.5137417534390107,4.819995637620564,0.5481303107551573,0.0,0
12.536999999999999,-1.4945304240836645,-0.9567467398539476,-1.1741879800358908,-0.8824579426758069,0.4043810673267747,2.2351134086671074,3.2337653406734765,-0.32526187622586133,0.0,0
12.597,-0.852942772189558,-0.3480129834681273,-0.24331684959820618,0.09602112313897208,1.0010198723371462,0.8169713662862425,0.33647245240785706,-0.7582151029986898,0.0,0
12.657,-0.6989303657584441,0.3454457520916434,0.7983564474053203,0.6344718439719557,0.1657187845422254,-0.5660567685801455,-0.8650716212322139,-0.618244343126197,0.0,0
12.717,-0.38859701723564166,0.3436425802407778,0.5523891017154022,0.01512472728145973,-0.8229546494341783,-1.0552485842220174,-0.6157934311831439,0.007108463130501462,0.0,0
12.777000000000001,0.29873985047389195,0.014070324238502824,-0.193019946347339,-0.8817591361712492,-1.108515427751002,-0.60920850809023,-0.5857196857649808,0.5582070225174779,0.0,0
12.837,-0.09959182138224361,-0.5269453687073744,-0.3647882942882179,-0.755333007688571,-0.5954237419727288,0.1901741786703237,-0.620870248005121,0.7714711593397863,0.0,0
12.897,-0.9621149678511389,-0.9948296937789932,-0.638222994501692,-0.10639108918296443,0.27672251582426877,0.8330991538114924,0.43245354624097665,0.7206704702864127,0.0,0
12.957,-1.7415169651124314,-1.3654280043408626,-1.468099940044308,-0.27654566000693853,0.09915205220127044,0.3856470028298944,1.096661297602388,-0.04102651394874957,0.0,0
13.017,-2.0174196463601675,-1.418039943476188,-1.770182311091899,-0.57622528755604,-0.4834390184665869,-0.2544020278745552,0.12399652411471017,-0.7809218993978414,0.0,0
13.077,-2.0703067379371225,-1.4499432145300384,-1.3160908269537674,-0.5855963554155252,-0.8830329625900979,-0.1644883056498659,-0.9122346459029491,-0.9507190883932061,0.0,0
13.137,-2.3783788604622216,-1.6981363514982182,-0.6621032161043775,-1.1561324871606768,-1.196342576596354,0.9356713754476843,-0.45169990786278164,-0.8143791258322194,0.0,0
13.197,-2.3944657247434047,-1.6442319983268334,-0.28209730604886785,-1.7230013761289575,-0.9946175140326984,2.447067120929605,0.6508617777135964,-0.86734653297049,0.0,0
13.257,-2.127705399600941,-1.3958015522072447,-0.3508961090161891,-1.4170802542800194,-0.3093910707116031,2.700663916233752,0.8186907351287777,-1.2467174084933204,0.0,0
13.317,-1.7419310859645598,-1.2878014398054562,-0.5183717777752673,-0.801937926808061,-0.1669167726075864,0.6643329294477092,-0.02928231138353668,-1.5670194558505492,0.0,0
13.376999999999999,-1.3611398633075316,-1.3541470946182945,-0.7870363300312245,-0.9301231624717422,-0.9733913315555686,-1.5041086248677427,-0.538299410377107,-1.4909933584201058,0.0,0
13.437000000000001,-1.2286330068182438,-1.365753634074648,-0.9263621698785404,-1.2676269928338089,-1.5112593534781908,-1.527269758925115,-0.21852103952875138,-0.8000911525668984,0.0,0
13.497,-1.6511375188741344,-1.3195737480727694,-0.8911103128810055,-1.2534271136085215,-1.4426372133027219,-0.7782127847465592,-0.1451613313837823,-0.3889663362568598,0.0,0
13.557,-2.1812726269249687,-1.571802191625203,-1.206962276831366,-1.6490408314821605,-1.5829592886426138,-0.276126643013171,-0.08005599571752255,-0.5356078019395797,0.0,0
13.617,-1.2636234820791745,-1.2076862291369175,-1.1440377949153742,-1.5882163442835304,-1.3757522753120577,0.45684833423338495,0.5846016185909952,-0.06181254642573597,0.0,0
13.677,0.9215283922930193,0.2570439250916594,0.1812262967343319,-0.0223450047546927,0.5541553033606875,2.1142963637046948,0.3626148461644403,1.0411298898577657,0.0,0
13.737,1.1786118570875537,0.9921864710136131,1.3121573328231106,1.0416536631280129,2.071351736524055,3.105566361860515,0.21511493917695126,0.8533869686266198,0.0,0
13.797,-0.6239318734806025,0.49785683785737006,1.5289767577304918,1.5605929781140349,1.8071743722071199,1.8810794918905123,1.4970862406679426,-0.3575329725328345,0.0,0
13.857,-1.2810163480095504,0.006742012020561221,1.6536062478344669,2.443221052755687,1.3729963649535684,0.5730569512502682,1.8293099059344131,-0.44966864324740713,0.0,0
13.917,-1.3406330531305997,-0.43160203275407033,1.2921343596547108,1.2653677480012808,-0.10067133322677772,-0.5782110939320741,0.669076577543576,-0.14851126912285692,0.0,0
13.977,-1.9228663749898551,-0.7420818405506874,0.7438907159216774,-0.6121683678735601,-1.5911115327662377,-1.5292183117928475,-0.21792471521251086,-0.5361775871124348,0.0,0
14.036999999999999,-0.9971782700821886,-0.4600011466724585,0.653571345885603,-0.20542430722784774,-0.6701991786655911,-0.11726403529816247,0.5079520237609445,-0.12943912117390494,0.0,0
14.097,0.6336277601010222,-0.06357043064008976,0.42370808172114444,0.5740786166780835,0.6525597733649612,1.7374495988301593,1.0959597436157031,0.6976239947229438,0.0,0
14.157,-0.21615540358359656,-0.7110757982462136,-0.5405289543594014,-0.4303269412173541,0.05275140624397332,0.9317047889043849,-0.4793311713643793,-0.1703211096911478,0.0,0
14.217,-2.1947470187825577,-1.84497449115816,-1.647320480577579,-1.799421688439401,-1.3897389483901057,-1.096543911338133,-2.0461640762112663,-1.735739659640398,0.0,0
14.277000000000001,-2.9718414295986566,-2.2075769004734362,-2.1467038185183887,-2.086456608234729,-2.175231506172614,-2.122739443745908,-2.385548025458751,-2.2609965367282667,0.0,0
14.337,-3.2745611620832804,-2.2905534965468286,-2.3901905290955887,-2.132909552615139,-2.354129339127571,-2.323149678467978,-2.4938554972296654,-2.250464504332423,0.0,0
14.397,-3.485244339808999,-2.427964843838881,-2.4607628930776295,-2.415826426795896,-2.2453035266370933,-2.4173004022872693,-2.574535095857515,-2.326961594932971,0.0,0
14.457,-3.4211206007462214,-2.448753226372994,-2.3766104524011404,-2.6153156939913615,-2.2824358406123597,-2.6722148815520366,-2.5033374055290194,-2.3859725320490166,0.0,0
14.517,-3.452779882487311,-2.414935436895227,-2.3081328206309037,-2.4590454921821574,-2.282337125521795,-2.797314772820121,-2.4635478661348893,-2.3596484400669904,0.0,0
14.577,-3.6540814443107905,-2.417955144980675,-2.2974789748099536,-2.2705897420404386,-2.1475082197180577,-2.7666354715107744,-2.5910880321174026,-2.321809464087375,0.0,0
14.637,-3.679464751432606,-2.4325571663424985,-2.45136150421093,-2.40329230100076,-2.3037509750643674,-2.762824441260669,-2.766007702780223,-2.350396905005683,0.0,0
14.697,-3.5450593028738875,-2.424014209886414,-2.6076182618443853,-2.54840900530301,-2.4887497030663828,-2.725214519198571,-2.8469090812562645,-2.4320958449749157,0.0,0
14.757,-3.52309902838983,-2.383584052560643,-2.6184822701249377,-2.5436743984921746,-2.4954225044674954,-2.565631460169816,-2.861295882464301,-2.4602695971128683,0.0,0
14.817,-3.6070310268109815,-2.358464384077326,-2.5611174480105396,-2.5391551868555804,-2.56754907766388,-2.488860784811844,-2.868926950662441,-2.4492641998974896,0.0,0
14.876999999999999,-3.596273486584922,-2.3468738123160975,-2.4619945477502774,-2.617362686966361,-2.7831521986629464,-2.6384617647690853,-2.8601710877908246,-2.45481303103067,0.0,0
14.937000000000001,-3.5741269377782015,-2.3637623841673716,-2.406691231362908,-2.7301484532385385,-2.863275461763022,-2.806886441524975,-2.8491676447278906,-2.4674960368224004,0.0,0
14.997,-3.5999554790832318,-2.478110123040794,-2.448579004496279,-2.719809883954887,-2.6697519580651643,-2.8632789326226575,-2.822730610632856,-2.4546837541708033,0.0,0
15.057,-3.5961842622789995,-2.548789522733171,-2.4208674167293673,-2.556454359338875,-2.3896281930205014,-2.837180614881295,-2.791393118693579,-2.4125933628379093,0.0,0
15.117,-3.6337443321606737,-2.4777152094208774,-2.343363414390842,-2.4151968138771998,-2.186923262510746,-2.760409416440501,-2.7869031718706925,-2.3910734455887925,0.0,0
15.177,-3.681151261223789,-2.439701481200578,-2.403603394430945,-2.439113401193249,-2.2598501237825235,-2.7503630419918075,-2.8132401174444026,-2.4456086746440553,0.0,0
15.237,-3.6799732332506525,-2.5040741527015276,-2.4978164379940853,-2.5637465444637613,-2.576412722073784,-2.8264196147517744,-2.8360561729567597,-2.5165786333582325,0.0,0
15.297,-3.6660203158478093,-2.5450345533525183,-2.5171206399055355,-2.60804580506507,-2.6552341393885164,-2.7846049545187497,-2.783241749267303,-2.4984059292916556,0.0,0
15.357,-3.651418906652602,-2.4892220834353034,-2.456920768856635,-2.4751138957691414,-2.3865817299281487,-2.6208044334065193,-2.708806135612748,-2.4141021560805753,0.0,0
15.417,-3.6784705082301135,-2.4135944139617647,-2.3826598230078293,-2.379367387641621,-2.360183591355703,-2.6296290416207913,-2.721306410235345,-2.3842095398401364,0.0,0
15.477,-3.7444346748697352,-2.4491468191441372,-2.354191414393625,-2.3786477726912287,-2.6154193404893618,-2.7795241888495035,-2.7302247632836933,-2.4314187499267974,0.0,0
15.536999999999999,-3.7835113962436737,-2.5380302032148703,-2.3397171962540058,-2.4215517726934945,-2.547659196563944,-2.8398372053342285,-2.6983943304996196,-2.4636182925086527,0.0,0
15.597,-3.7383877250403175,-2.558124481779294,-2.3144940607438054,-2.440544789986894,-2.2551737022052194,-2.811872888388034,-2.7098090492489804,-2.427357414264929,0.0,0
15.657,-3.652776344625426,-2.5478154243498854,-2.357906374002654,-2.285805123061905,-2.2791277756814057,-2.7763685925753516,-2.763582893972144,-2.366603283262124,0.0,0
15.717,-3.641951375377006,-2.5189039664818496,-2.4412963261322567,-2.226624789793748,-2.469012439489329,-2.767224191665569,-2.79794359140028,-2.337232729665526,0.0,0
15.777000000000001,-3.623222372056921,-2.4104310908294826,-2.405012190365475,-2.4082680853486855,-2.5058349695035154,-2.725974376066367,-2.772879467628366,-2.3676331615146124,0.0,0
15.837,-3.6108684880002553,-2.271337289094664,-2.325062411252947,-2.486848721947865,-2.222830027668653,-2.5471604102415326,-2.7321532895818557,-2.395987433940952,0.0,0
15.897,-3.707131437305392,-2.2041017612761915,-2.314971669195328,-2.381819591095705,-1.8482674192881052,-2.38083600265646,-2.7199311376847355,-2.399712150844287,0.0,0
15.957,-3.694231757714325,-2.237980574091963,-2.3321014444953225,-2.2562090959604277,-1.8280291006392482,-2.485039970335818,-2.7410918533847632,-2.4600442437899743,0.0,0
16.017,-3.5569010292855996,-2.3114918949244148,-2.3723361545725683,-2.2335543059685183,-2.1178309648481535,-2.681082858693608,-2.767837435631986,-2.510792899092751,0.0,0
16.076999999999998,-3.4936448491854732,-2.3510240703005,-2.470534255855289,-2.399857489379617,-2.5252552047964847,-2.785475828843088,-2.790749905010669,-2.506712772025875,0.0,0
16.137,-3.5122777385451656,-2.401909283504547,-2.4945830762171295,-2.4912811276964173,-2.462830407726368,-2.826665225978197,-2.8360162279119074,-2.5030604509328565,0.0,0
16.197,-3.491014701131519,-2.4291824376549687,-2.366749779847171,-2.3775329276963393,-1.9156138019725548,-2.764240686849621,-2.8829244386131623,-2.5126395781712074,0.0,0
16.257,-3.505508937359537,-2.413630987377838,-2.302329685696805,-2.3836583501849695,-1.8124373808145373,-2.648598681430959,-2.8714451767626468,-2.495229660194718,0.0,0
16.317,-3.6165781969620454,-2.4540109447570724,-2.4102478753897945,-2.5075021081811406,-2.0135867458992887,-2.5516763198909334,-2.814808532270371,-2.4446477256982746,0.0,0
16.377,-3.6882896172959043,-2.5005217684677095,-2.46042779276106,-2.51313554622368,-1.8345024575403972,-2.457648538491093,-2.7563452174487177,-2.4243230376080294,0.0,0
16.437,-3.7217306259724965,-2.492560578850376,-2.3993441087301632,-2.477636713120532,-1.8001922031674589,-2.5290512198450616,-2.7418680563201954,-2.458604025660676,0.0,0
16.497,-3.6997869380110604,-2.5063813264543104,-2.4534950598641214,-2.498293204660858,-2.188129207048639,-2.671821038211528,-2.7878317924197984,-2.4700923579961667,0.0,0
16.557,-3.600048714024016,-2.5349136155178154,-2.5795787611270478,-2.546772701681838,-2.439473660793012,-2.617862407660646,-2.8270924533466544,-2.441006152803788,0.0,0
16.617,-3.5720271601486897,-2.4384468180035372,-2.5461704734633046,-2.463773274868085,-2.4423755016234265,-2.576655271811986,-2.826772549587812,-2.4346129198280533,0.0,0
16.677,-3.656192432427325,-2.3566884265945007,-2.3458835200603723,-2.342463087094514,-2.4438717896861974,-2.6456486034363254,-2.822010923230008,-2.4517896425729853,0.0,0
16.737000000000002,-3.701576482905574,-2.429879072437336,-2.23967380696101,-2.363566078791442,-2.3644112153734795,-2.634965820646025,-2.8280103607358256,-2.440651560734936,0.0,0
16.797,-3.659624780867858,-2.470988333744112,-2.355909879602634,-2.467109070195898,-2.3127149829903626,-2.624992114325715,-2.848128883692315,-2.4193650966412075,0.0,0
16.857,-3.638446542569205,-2.418752193121151,-2.5275984344104687,-2.6033816396084455,-2.3886843834555838,-2.6810764452562403,-2.842226728616072,-2.418606753642663,0.0,0
16.917,-3.6483190389855173,-2.3820316795727456,-2.587932350339641,-2.578021016411841,-2.4387441193495847,-2.7628112615296536,-2.772709228976583,-2.4173631684925545,0.0,0
16.977,-3.6355348692267064,-2.402941876657899,-2.5763126993902707,-2.463151023379672,-2.490345397394442,-2.8639035178380774,-2.719849781441084,-2.3751492514356527,0.0,0
17.037,-3.6441961516796346,-2.418083292512441,-2.577661475287871,-2.476308755349925,-2.4516892465155795,-2.8352642181811256,-2.7455685214821592,-2.3438595023282636,0.0,0
17.097,-3.6470817967094256,-2.393324925270676,-2.5725180425491745,-2.5097793999827673,-2.3400579624599533,-2.7133247052930964,-2.781347142322725,-2.3820360877277778,0.0,0
17.157,-3.597036140653151,-2.371555209716273,-2.531994035939587,-2.530653507903944,-2.1721545528920347,-2.6769329535007667,-2.799083628182784,-2.4121970949026044,0.0,0
17.217,-3.533408858365506,-2.3846598531420384,-2.490758819353529,-2.5341245351484933,-1.875287563181697,-2.7383773021773212,-2.817849064560231,-2.404988864602379,0.0,0
17.277,-3.425194265784309,-2.461988964894339,-2.522232813164705,-2.5586287482893337,-1.8492737318577561,-2.8512982423925455,-2.8360672681429513,-2.370331376536089,0.0,0
17.337,-3.392659014669567,-2.5252612213353953,-2.537738165353786,-2.6629854309545906,-2.2774623405841212,-2.9328876138448887,-2.869335417981938,-2.3404220842820664,0.0,0
17.397,-3.4663148523985794,-2.470004087316798,-2.4431313958089884,-2.733587675626872,-2.6809120262229054,-2.9389319344951876,-2.8614752694846004,-2.371355163076441,0.0,0
17.457,-3.4832581350999576,-2.3452252722882156,-2.3327381864096495,-2.7218998488084405,-2.620595764805176,-2.8799302509865967,-2.7667771181825898,-2.3935069094332495,0.0,0
17.517,-3.5271185276134713,-2.329628123587533,-2.3715458456122978,-2.553514136087954,-2.0692637189019094,-2.718930561096844,-2.679433119581377,-2.310719910555624,0.0,0
17.576999999999998,-3.50863067498803,-2.430116859490422,-2.4719554896486255,-2.302952669409302,-1.6486200133876885,-2.539745677129179,-2.687770703973501,-2.2702385203663487,0.0,0
17.637,-3.454882426672611,-2.5235045995944385,-2.517304002564592,-2.186625186149928,-1.5639348450630182,-2.4350239023093034,-2.7409600448105524,-2.358474854930589,0.0,0
17.697,-3.536163891386273,-2.5189557718127964,-2.529656396848525,-2.2576387969365896,-1.8615126534826167,-2.5045454095173567,-2.7892475104723204,-2.44053570281024,0.0,0
17.757,-3.6229297209084415,-2.366506644243764,-2.5474414882668426,-2.4182910917744924,-2.2855245288541677,-2.6332823408392385,-2.813308800703327,-2.4535105462529874,0.0,0
17.817,-3.6860112106911935,-2.322931087833126,-2.5910446438045622,-2.5539211453721316,-2.455450580271659,-2.679292159179949,-2.7978956024393624,-2.438696483165344,0.0,0
17.877,-3.7564384562507738,-2.473818687878327,-2.5818389405598023,-2.591395708617057,-2.595032654115,-2.738395084764028,-2.790222555183133,-2.4525447181136486,0.0,0
17.937,-3.7951472831661213,-2.554050111917095,-2.5453657853599476,-2.5819351820679217,-2.6276874003055055,-2.7603041180781016,-2.8056712500825363,-2.498440212340346,0.0,0
17.997,-3.739685684630354,-2.5152143052464027,-2.526289052395963,-2.6665487283773697,-2.4270826082087544,-2.715493765523775,-2.792285227481701,-2.5305542993358685,0.0,0
18.057,-3.6013191801147966,-2.4534625082756256,-2.5173597171719413,-2.7269289497662013,-2.3957252517227796,-2.7201952497031225,-2.7299713557075447,-2.5058787282308628,0.0,0
18.117,-3.492542270284908,-2.3543524562114997,-2.5177973057021865,-2.6690937485817625,-2.638276005886364,-2.727973383304887,-2.6858658895712053,-2.4642980317019343,0.0,0
18.177,-3.4482582964842283,-2.2807759064460726,-2.479584152924763,-2.5492497758061092,-2.6374849574022874,-2.6822046257643506,-2.7084538341803435,-2.4576770859037262,0.0,0
18.237000000000002,-3.5088360901577893,-2.3740031894090747,-2.469799954242291,-2.5173579733867038,-2.5503202827899054,-2.6814690209111394,-2.7443916150124923,-2.461132911163753,0.0,0
18.297,-3.6075417351449612,-2.47372008358674,-2.517452557249896,-2.6216067705250095,-2.685060987340021,-2.780618758975715,-2.762638829007799,-2.4704645336830073,0.0,0
18.357,-3.6249593037284327,-2.425549762880162,-2.5744338653540404,-2.6774432509982424,-2.783472985512688,-2.8705877442392853,-2.784579658330055,-2.4893797565502926,0.0,0
18.417,-3.537813520167992,-2.3985964482678104,-2.5998251978743334,-2.6541973698055874,-2.6612016053991794,-2.8478557428175866,-2.8167378862325037,-2.491890451262757,0.0,0
18.477,-3.492833906552169,-2.4626361234193466,-2.561483936070901,-2.623101648937785,-2.4484941717079334,-2.8233299393992097,-2.8298351023106503,-2.4814081057650585,0.0,0
18.537,-3.60268136979988,-2.470870941076504,-2.522316598986734,-2.516774576289016,-2.3378176258060814,-2.83079550393898,-2.808230853351397,-2.4382605849281167,0.0,0
18.597,-3.66046947808452,-2.392570717749493,-2.5185778701738433,-2.359342226076096,-2.151978594464161,-2.76190361132755,-2.781283477353419,-2.3666164879606693,0.0,0
18.657,-3.5939048465563705,-2.3551237173345325,-2.471600350933462,-2.2478357033903706,-1.7311164160972183,-2.658524860996819,-2.7734225675235997,-2.377094636487925,0.0,0
18.717,-3.5645639884303413,-2.399679242129085,-2.3583170550924915,-2.2818226505245947,-1.7883715618405953,-2.6729432148541967,-2.7997423470246487,-2.4461463962515553,0.0,0
18.777,-3.5961377152029512,-2.420120517581687,-2.249348839818134,-2.5075110714792337,-2.415113221924626,-2.763918542145806,-2.837295508299088,-2.479936699188967,0.0,0
18.836,-3.6784306934057813,-2.44121174072612,-2.229277263582812,-2.7215919154307717,-2.837589630750275,-2.831310759500172,-2.861486169602724,-2.5105081933513693,0.0,0
