t_center,rms_emg1,rms_emg2,rms_emg3,rms_emg4,rms_emg5,rms_emg6,rms_emg7,rms_emg8,mean_z_emg1,mean_z_emg2,mean_z_emg3,mean_z_emg4,mean_z_emg5,mean_z_emg6,mean_z_emg7,mean_z_emg8,channel_count,frac_active,global_active
0.1465,0.5789538623935927,0.5617984898781981,1.3786468955571736,0.669047394939295,1.3693620192060802,0.3568550346447336,0.8312745808966202,0.958903624567913,-0.0719709034433689,0.5910975506886693,5.865320794264001,-0.21642490122652602,4.163754932500475,-2.3575083168031536,1.5431136571770794,2.603522940119181,3,0.375,0
0.2465,0.6025435571671461,0.4758384168711173,1.0981559494642263,0.6644813779640816,1.462077951990854,0.2581746153379181,0.7407194155790157,0.789823881203167,0.1480441423362075,-0.08667541114713777,3.1453629728134227,-0.09606199649495656,4.861331567752007,-3.15939711954236,0.8170385344889955,1.344083635410187,3,0.375,0
0.34650000000000003,0.7661320196626952,0.6822516645579028,0.7225509641138957,0.6434999615732496,1.0132307280021273,0.600152742691212,0.922070490077856,0.6749773264288159,1.294135596527771,1.0719030486056709,0.727371050789576,-0.21131713613409844,1.6593875624852539,-0.9484110795578631,1.6311938345803703,0.39530857740060016,3,0.375,0
0.4465,0.8085205332391007,0.8279575107289271,0.832778105110477,0.8692364428943251,0.6623345820339519,1.0224557901270037,1.1329395389911647,0.557135371700748,1.6055243462022606,2.345941334364198,1.577786210273703,0.9257007177738816,-0.16992201430566442,3.230759200957616,3.446352194262835,-0.5369451485149962,5,0.625,1
0.5465,0.6071817786344544,0.6213534860842777,0.6575555851256146,0.7976260006541872,0.9127892935835697,0.9800575256403122,0.7880318963430265,0.6089440805770443,-0.003162335736730766,0.7466382776197515,0.03027265747744536,0.4477072730035592,1.3488459097478047,2.8355308196707636,0.9686580707604354,-0.09656963463982116,2,0.25,0
0.6465000000000001,0.576366115503491,0.4660644267125336,0.4820641437044192,0.45576739388447485,0.9041344329179035,0.6670358552269554,0.49853735191411397,0.805538791257183,-0.15390239994014548,-0.10847633352107215,-0.981172126070615,-1.1864164927382868,1.4231091694431757,0.36582258367940135,-0.4147094764708584,1.4723994679571764,1,0.125,0
0.7464999999999999,0.5962560719969868,0.452797941530891,0.7228835232864649,0.7116485653729971,0.6736198105282093,0.628751389394033,0.558381638338065,0.7761683158209545,0.02736281312157359,-0.3008527464731031,0.8042481526100239,-0.15761815032594317,0.1091126444453689,0.1380559151818802,0.009132365990940847,1.1478144264700172,1,0.125,0
0.8465,0.5285950932238048,0.327759638326775,0.734714803022561,0.8697515191511871,0.638840199961784,0.6472321832022377,0.551801108741171,0.5403243144615495,-0.44859357843424064,-1.2434922136943714,0.8781185759394557,0.9517354874742885,-0.08577948616750933,0.30377071625966395,-0.03397870315537707,-0.6476797922452069,1,0.125,0
0.9465,0.4463985954542629,0.37019889323820476,0.5124886267853271,0.664780273098009,0.6832717123060379,0.684884404527657,0.468756902371588,0.6871105449524922,-1.1827831658244705,-0.9125948814710744,-0.8188243322240144,-0.16090504762664765,0.1877148781658885,0.6325619225482003,-0.6505961654528006,0.34776897703536425,0,0.0,0
1.0465,0.35966490455085903,0.44821939893265994,0.5572151436690317,0.39776342432388906,0.6932365577890222,0.6218739051210892,0.48538300025553,0.9051790570351445,-1.7581168903363287,-0.21262726745813348,-0.4922769024098707,-1.5507241174485629,0.25387717791160735,0.03031289454319684,-0.5870398547059877,2.3036139359330834,1,0.125,0
1.1465,0.5559868481909991,0.5529071157902276,0.8072796639034562,0.32319519983365547,0.5704917763329775,0.6166954295863553,0.5873034265408169,0.7602619486453597,-0.3667346697827516,0.3934206877235296,1.342894551836367,-1.8634559728253552,-0.6204097298120769,-0.004393888849063971,0.160016799600359,0.7086455810651644,1,0.125,0
1.2465000000000002,0.6704658070929865,0.7525590554056922,0.7044908252308478,0.5132375892014832,0.5389305250752867,0.6827061187740844,0.7624650352575845,0.4514305975702503,0.667239414679203,1.847573379057635,0.1302894519564241,-0.9219069194164277,-0.8880150891875594,0.6210185494048966,1.2317501017579644,-1.6160758675665323,0,0.0,0
1.3465,0.5412117677798987,0.7456162416906277,0.48704789078039645,0.7393017153989193,0.6699302254002436,0.676544423421486,0.6686219550619632,0.5652213033966265,-0.5522571280767326,1.850772566038915,-1.0500573119498895,0.3005815293803429,-0.06079615183919693,0.5683018977763254,0.2330541336388251,-0.6411516241026166,0,0.0,0
1.4465,0.4487115169331934,0.5218160635222315,0.5596132602259842,0.8306522619594376,0.6062828651771421,0.63830725446745,0.37916536782264193,0.6625454774346435,-1.269779121482569,0.1741171602698426,-0.31345918437031983,0.8396905731716394,-0.411556041041875,0.21897271896667136,-1.258249033267552,0.41822461102375963,0,0.0,0
1.5465,0.8326921583789147,0.6245893111982302,0.538589799128642,0.83569153517362,0.4817856623197785,0.6199654637663168,0.5336315521720284,0.6472500086312539,1.4060424919153052,0.7018342304989662,-0.4638296532997312,0.8787427466633914,-1.0536362217546205,0.06805325388661462,-0.25102794054343885,0.2746989441171349,1,0.125,0
1.6465,0.8456013337948257,0.9816688556292305,0.6299912143356385,0.7582569719061869,0.5137523313922867,0.5174473407285203,0.8575557628411851,0.7209375399549527,1.568960738551959,3.4232636905590925,0.23496303161643706,0.4003679255158026,-0.8571448064757913,-1.1720193220605672,1.7374467455515186,0.8071914668490774,2,0.25,0
1.7465000000000002,0.47758577717758727,1.0999053465136337,0.7286696999134733,0.7475386378565849,0.5953614378624195,0.30112861838013893,0.8676385496312965,0.6794807538742441,-1.0028137928467429,4.409926329423279,0.9357414191431401,0.289822846874833,-0.3780734600556327,-3.056540222316643,1.786686978269417,0.45999522987870134,2,0.25,0
1.8465,0.5821712467476176,0.8166836452267937,0.7929876804633751,1.086284951685737,0.8415128640175538,0.37325530986217975,0.9446202009743958,0.5308973260396731,-0.26152806292725317,1.9275445522637997,1.4026723682320026,2.0169579458390845,0.9929258508890436,-2.3778885714992826,2.1927264208081856,-0.6808722612974162,3,0.375,0
1.9465,0.6651549982605093,0.6074477307426333,0.7420900039216286,1.1055635907255357,1.0348317164946312,0.6545873658295205,0.900723233785419,0.4571957707566254,0.47711221322684383,0.7406187718159195,1.0534961977124886,2.199943619276445,2.2942061923335273,0.15729425999236465,1.7779663906117613,-1.273849643303285,3,0.375,0
2.0465,0.5367057972391113,0.8701676711222085,0.648358835691459,0.9341181180833572,0.8477562015631164,0.6713536544134726,0.4374352763331423,0.4870730970186361,-0.4837882472594697,2.645116232288657,0.3935260510890231,1.3846524164076786,0.9171911986777599,0.20361692563235628,-0.8584836890545486,-1.0054057623031654,2,0.25,0
2.1465,0.587516681841272,0.961388736577615,0.6868302542055064,0.8903764075989472,0.7497216510057441,0.4330892880066726,0.5529422864546565,0.5073678434552964,-0.06438272769464715,3.289740518535774,0.6869027951523405,1.1381273395725229,0.4288040713112023,-1.8167595239293213,-0.30915765905860076,-0.8212059200856896,2,0.25,0
2.2465,0.7217718616536282,0.6876476574587339,0.6474470639889828,0.6560887402595477,0.8015733203100355,0.46613051583584963,0.8288924590905533,0.4423135341110653,0.9941872355869346,0.7196102596129367,0.34152225823271815,-0.17388607674469622,0.7820572220057627,-1.522125601237694,1.5694528179293628,-1.3335976981748592,1,0.125,0
2.3465,0.5655306092268653,0.2933826856630471,0.4959537983712022,0.5409008590543336,0.5151447615425193,0.7341712623880859,0.7021880607495025,0.5234052494167513,-0.6352857438082293,-1.4819958455724558,-0.8404690294304773,-0.7164616858963316,-1.1899109004807293,0.8136004480578468,0.36388141006467534,-0.763306005595767,1,0.125,0
2.4465,0.534638333842597,0.31606423294763863,0.6015009597534873,0.7393081187658475,0.40766892146272005,0.7424652542345126,0.4969824688236978,0.6771754020827153,-0.8106179360790234,-1.314131890854674,-0.17443409214697297,0.28392398937994795,-1.6429962348775573,0.9981862950793,-0.7055359042204524,0.49456933772818423,1,0.125,0
2.5465,0.6361575391771723,0.28720586632508305,0.7081470818515113,0.702782467416904,0.5857440620064016,0.6862749768397353,0.6727622993292489,0.653436881767843,0.30897692878215416,-1.5248825784522326,0.8114090559548829,0.006498022285985152,-0.4469314728367786,0.5589056223392103,0.6579096185947096,0.2950612483311289,0,0.0,0
2.6465,0.6219154125657975,0.308651306318662,0.6501410274299282,0.4222864445874328,0.6251430900639109,0.7358357991870468,0.6527984667891399,0.4652566406236986,0.2567566365287519,-1.3102994775695327,0.3873680896471838,-1.364415834733495,-0.2505381633389431,1.042312903702258,0.594238229558982,-1.2538080317962146,1,0.125,0
2.7465,0.6450226897326475,0.4255889591481818,0.5439561471342822,0.3814549447986962,0.43103861983808417,0.6039120844032945,0.5013200415636659,0.4815625454578952,0.45487530994561076,-0.407862226340085,-0.56362842419862,-1.537757657796762,-1.9678352198971538,-0.200359944889129,-0.4468398161937887,-1.251972231133171,0,0.0,0
2.8465,0.4838555484417736,0.4313606885360697,0.41732461857549674,0.5921515479774261,0.3522087646166659,0.4827605799359228,0.42653273749983583,0.6333566111405006,-0.9517502960155275,-0.35472452436963714,-1.5678878637796259,-0.5622868959744486,-2.3466764995140625,-1.2660291796629373,-0.8971810933368835,0.05947302651664979,0,0.0,0
2.9465,0.3286256477019562,0.4476818952914302,0.3787519144958069,0.7428652435294484,0.581806234280953,0.5465746908792892,0.5444068403207484,0.6238122503936653,-2.0533412149529706,-0.2803232297178444,-1.7584529412798378,0.3353050227309569,-0.5746209074320359,-0.713373806421324,-0.15408042784608944,0.08296136656139659,0,0.0,0
3.0465,0.562737086784727,0.550335604966144,0.3924881530993073,0.6237536035081206,0.5529341981176669,0.641164065877585,0.7017581101068723,0.6140982023054234,-0.5040111283720884,0.4720340329989103,-1.653113562867851,-0.36037359586208106,-0.7205686264337077,0.20011265168800343,0.8950090719353376,0.021366804650295966,0,0.0,0
3.1465,0.6543295033837341,0.45735887673951153,0.4081024077380702,0.38705929036714776,0.40116646388876387,0.6549514428082541,0.6032553499789683,0.7814543352356026,0.5099713704797479,-0.4398973360776816,-1.6936514937573464,-1.5359977193160492,-1.570044782021509,0.33270435610441984,0.02176581673034071,1.2828611593520747,1,0.125,0
3.2465,0.5526692680327944,0.31123586232163775,0.9360934468529453,0.5759434270281963,0.3263807626412416,0.5740922290927762,0.32457357393669384,0.7611996045818044,-0.2308459165940407,-1.4516916855437045,1.6679313488885208,-0.794841596883967,-2.0397211655416414,-0.4025902066591339,-1.556595956418095,1.0776694905862592,1,0.125,0
3.3465,0.560584641951376,0.7003350654170308,1.2908697997362317,0.7858130234089235,0.34046110140674274,0.5033790073356768,0.3461718351553994,0.5313826393702717,-0.17339467895371802,0.9716938527003873,5.364974434613535,0.5539147049491324,-1.984009893570287,-1.0917925364946597,-1.421504253973465,-0.6906384828381441,1,0.125,0
3.4465,0.645047865441116,0.8230480363566168,1.0719585365174922,0.9290734515395145,0.5168069569915303,0.6036415079524265,0.38144257610624394,0.4613452861826273,0.4585814018791852,2.391842687964844,3.2554035327051647,1.3437731703825204,-0.9025909416128556,-0.26281945241407284,-1.1950281134249945,-1.1862341514956949,3,0.375,0
3.5465,0.6297519075354865,0.6517603260406076,0.6543639748264057,1.0619400277615767,0.7945094245647075,0.6866294779684282,0.8148786344745568,0.42263402329116256,0.3232680618885588,1.1842474219903807,0.22231047994277148,2.081797555427165,0.7272605057237526,0.6209178853076446,1.0348017806183878,-1.6020085943124354,1,0.125,0
3.6465,0.5279483701516936,0.9154407495893991,0.6616146146019302,0.9199365797543174,0.8904861507233252,0.6579763462757249,0.9427541373349889,0.7262558330608335,-0.43408548613754033,2.7804620226479644,0.38476474189156656,1.128813407125937,1.3356252822699222,0.3198557910318215,2.270111254835643,0.25007341462231775,3,0.375,0
3.7465,0.6228491247020819,1.0106574636607633,0.6842950558088389,0.7132602902703371,0.6786923684290563,0.7014242794180362,0.6401510543992417,1.0532293978002663,0.21699064836617993,3.693929232194245,0.6393412880245928,0.09757207035840874,-0.09605585736624192,0.5623978299782801,0.31574677013473273,3.386153051092736,2,0.25,0
3.8465,0.7656191616825758,0.8504549230319562,0.7337234033783371,0.7504814406169367,0.6669565496831634,1.0562477710361748,0.6787172530540702,0.8779534125011247,1.37285658619276,2.6485049523628623,0.9998181572281493,0.38416725394145246,-0.07569076630052674,3.42168764974161,0.6011901058459597,1.5829455188951358,4,0.5,1
3.9465000000000003,1.64249682555229,1.2678888295769017,0.930768670480736,1.117644891709203,1.1621996002101236,2.7234315356739343,2.0868724897271553,1.7897998763729452,6.4286845530627135,5.142253504068112,2.5445611220356574,2.0541545434385466,2.669125711202306,15.430601648777593,7.725270922762676,6.146592614475118,8,1.0,1
4.0465,2.747224410734185,1.9576839494600464,1.2945553042979623,1.582383205658715,1.9375853178115459,4.625386160934333,4.150532690952226,2.658143188317058,15.564566249704336,10.246536129798814,5.106409103058507,4.6578756474120295,7.332100103244999,33.77378505557362,21.935428695148595,15.080891634384136,8,1.0,1
4.1465,2.850634174354187,2.556114705736534,3.394678639061882,2.60625592490452,3.0816065061593405,5.466916549209188,4.890392039423993,2.414681756236863,16.705723475194166,14.756136742582788,18.757841936761668,9.24754414145573,14.3488516625237,42.69022966615522,28.357864015350454,13.617096154161905,8,1.0,1
4.2465,1.832862058443706,2.1719537303441534,4.344889678969962,4.278744190402969,4.061609423816669,5.283229856503162,4.121331319675347,1.9099898831418558,7.878724140044705,10.707663909736013,28.771268399602626,17.896676128657163,20.55109074157381,40.83693013664924,23.018093649140692,10.095011264831232,8,1.0,1
4.3465,0.9497350944648258,0.9294189467015018,3.1896415500678255,3.8290647122024777,3.2969886942596154,3.816651804393579,2.7241739944641927,1.473088131536122,2.6855271957172993,2.2031756772458966,18.203116641654095,14.30545418231319,13.745504193317839,24.371483103839683,12.706556715123922,5.868707100374199,8,1.0,1
4.4465,1.0834095139510798,0.6886687406777932,1.5017249772130323,1.4853966167464299,1.3466929655491637,1.6615473300484076,1.6961402657935525,1.266835676740947,3.720250721069655,1.094311883291332,6.619587796588404,3.925815721425808,3.9485896453050886,8.587621321400325,7.170168745448439,4.579792565961916,7,0.875,1
4.5465,2.049143333018064,2.024556506954256,1.580238937148666,1.2531960126116235,1.607658577162201,1.739581670790607,2.513970555532279,2.300000807469286,9.84017651939761,9.21216084884122,7.162185682847681,3.039800212165909,5.466102537230677,9.628533793645268,12.21352700297998,12.413172048253143,8,1.0,1
4.6465,2.2870147466270883,2.2745168756095664,1.8145683011626217,1.409080050578008,2.4511616375181244,3.4461798392839156,4.556254720807363,2.635533982709179,12.245970530311265,12.204070751073136,9.4318509238318,3.8644262400060887,10.409789540380002,21.787816964917088,24.762285091713885,15.815917533981969,8,1.0,1
4.7465,1.701654808783568,1.7038110329152933,1.855777934490363,2.1982163223023594,4.410686075046564,7.18268230873948,5.361930905680086,2.116945866244401,8.102458527050779,8.616630380823148,9.820992470530516,7.414191527996001,21.26229202263047,52.817810847237396,31.33147509582415,11.600588761485117,8,1.0,1
4.8465,2.0060567508566596,1.9510291393445753,1.791373527807489,2.6977988257512817,5.348824253103602,8.592632420525685,6.276745730706997,3.5639592681437864,10.324766870942984,10.407923763159875,9.12480714211047,10.57061105502644,28.24748718151953,69.08619245010803,36.57538259700491,20.080653987097847,8,1.0,1
4.9465,2.8333141529880237,2.325038543769777,1.6837067116466022,2.5045587371650497,4.295971984472756,7.582373499812824,7.925028338832569,5.035862137371182,16.691100488426397,12.90173265791359,7.513530731946568,9.459377494177282,21.114285662797716,59.341255211783455,48.017235584145894,34.0386062577517,8,1.0,1
5.0465,4.329057287486534,4.85503298703523,4.81410050557428,4.254726476170961,6.274509979882117,12.18408503802798,7.396739330289894,4.774281290814054,27.277793791685895,27.87438673816484,27.107338048983042,17.05184423337388,30.699693860934026,93.22530540845791,43.47059463035024,32.30455945275253,8,1.0,1
5.1465,4.579250245414574,5.085246414003051,4.925940561514268,4.246548275157718,6.685220230500849,12.864934198317586,5.800617427232016,3.4678616296549123,29.35306003029144,30.100480992392406,29.045165612833692,16.951501096549904,34.87652366375219,103.52680536229008,32.41240002017821,21.601690772215665,8,1.0,1
5.2465,3.5285725748100996,3.292553453110822,2.5942690395421844,3.1306584390986725,6.185910344999069,12.665042933468532,8.072419848956848,3.4083781788811294,21.29429313678147,18.18735299078883,14.139769152366009,12.21109990223308,32.22893860633539,102.21865149252157,46.10808186516004,20.436103251865504,8,1.0,1
5.3465,5.012670982691582,6.206984479424898,5.7552461074256325,6.238407811455974,11.289998959532479,17.49392072107035,11.742643627770484,6.524385179756203,31.01345700477606,36.45042114404548,35.33376333423162,26.96674098579915,60.984531162257355,146.24614340289548,72.27092007554869,42.791677339556415,8,1.0,1
5.4465,5.022331688378834,6.885919029355764,7.093529160126666,7.273712629406253,13.877273882251762,20.16755322207756,15.499617706095803,7.378641493381474,31.055886617174295,44.29606461388789,49.81086989582588,33.927995722938846,80.0699119961718,170.77532057704957,96.75722843770201,52.47773968696863,8,1.0,1
5.5465,3.813203047943692,5.458699909398398,6.447565275753819,6.970312470677959,13.620795348500748,18.195227030256987,16.378828694637114,7.037431741648147,22.949026864566736,35.026004621754566,45.27558952860923,32.55667243165464,79.09293953848407,151.67291724126483,103.62235161621031,50.13832175856824,8,1.0,1
5.6465,4.9562339503338615,5.336617801693021,6.56019089613496,7.73245082557374,14.00923355672659,13.70486474589943,12.143070769509217,7.453459829068354,31.41158822696073,33.93768034845225,46.007723118183904,36.411973920684986,80.28066379562173,113.12216465080013,70.92396983384054,53.16972777314193,8,1.0,1
5.7465,3.939675532597834,3.696760943511547,4.863690724728324,5.853963190178626,10.33424799449495,8.981393675696179,5.7418032037558895,5.2255255029919585,18.220243784182227,17.833293431784035,25.954964136535754,22.166539062395927,45.1050395412,60.77561823563582,25.806339890464383,28.414077202498156,8,1.0,1
5.8465,0.670301677728166,0.8922095604390178,1.158205752860685,1.9021404571248843,2.0683479039667065,2.54724976165994,1.3759380278625948,1.2302513922716576,-0.30974619113436963,2.5129167160144346,3.2640948066356112,6.270427073301908,6.871437519422885,14.241675774026069,4.953075016390982,3.4267099801818808,7,0.875,1
5.9465,0.4738774658410941,0.7912346260309094,0.598865297488465,1.4424855183500502,1.2825220329014726,1.2099941554795255,1.111322439369704,0.7117018997601591,-0.8938454085976996,2.1363874175089865,-0.417478120872168,3.6875945702347592,3.619948095673724,4.197728873720949,3.5369607096146014,0.68539349440333,4,0.5,1
6.0465,0.6139726186180545,0.9639824541493496,0.4795303466798494,0.969086047559606,1.1603800075469872,1.1707256292934622,0.8596625954330384,0.8560753587114093,0.18071917100434562,3.4766760948378055,-1.124704921114224,1.5912899748344682,2.8949728812286373,4.092456930211627,1.785308798448289,1.7548707386193625,5,0.625,1
6.1465,0.7155782810796528,0.8166451453849926,0.5348713050487256,0.9168746500693228,1.3092577397377128,1.216979535653319,0.8474957947110993,0.7680806282570314,0.9952424820506987,1.9794829684946678,-0.5608559827161838,1.2626113356303703,3.944696913385907,4.694657070188712,1.763063166640408,0.8148128714682134,4,0.5,1
6.2465,0.6799650552707366,0.46718628831756365,0.6732432560101729,0.6205224031829624,1.166796672674921,0.7202154595375315,0.7830271344089118,0.3795237180940315,0.7022000908506544,-0.4472544790027435,0.32783041509244604,-0.9179750823624212,2.9338169582074154,0.7285239461095787,1.1111954297790687,-1.9630434410576085,1,0.125,0
6.3465,0.6143551678488632,0.5840206899049173,0.8783253604338402,0.9545879888646571,1.5492157748251825,0.7520673142274841,0.5140108306722577,0.4662379793116644,0.24092216027900318,0.3594052701334372,1.871091540139529,-0.29789696814461963,4.416047871231586,1.0716473829760442,-0.3664352195639251,-1.5295178460144891,4,0.5,1
6.4465,0.8284900149564703,1.179438324085661,1.651225346599204,2.4899201890483824,2.4731254804447262,1.0344148774915063,0.7470992809937718,0.9997418516363883,1.6981589167348583,4.490163472989135,6.977035272243285,7.903760482999817,10.48852739200187,3.5648622028428156,1.0816760921170914,2.4303647627850835,7,0.875,1
6.5465,0.9624675745647934,1.8541207051011581,3.20966797895001,4.566003481871716,3.9920941815966846,1.0785353625116259,0.7534837991215264,1.2017790230907628,2.865294071629238,9.628485952242242,19.32394257731525,19.70858933072724,19.49510096027192,4.019761961950393,1.0834726179518086,4.624563131909315,7,0.875,1
6.6465,0.9137023669613941,1.9284664790887138,3.4297222530147886,4.559671186657843,3.7407919909810134,0.7718429421344013,0.601639529252586,1.141978130212682,2.5000396888092986,10.238505693161779,21.68058825719779,19.429765423145334,16.472208735915846,1.0150328827422181,0.18668603931514638,4.116137332771135,7,0.875,1
6.7465,0.7569272465934324,1.3466265750232396,2.567508902143006,3.2200844429451245,1.918570335735174,0.7341247872001491,0.5932851352462477,0.8702962457388871,1.1930417888941907,5.7808221016266454,15.341072808459613,13.192992967516828,6.882187860676492,0.7503013446502247,0.20772467508636447,1.2579782088637672,7,0.875,1
6.8465,0.6186932063167123,0.9272030585967136,2.3912315200768743,3.6121336036995633,2.245301528563196,0.8698586923541095,0.7592791119026138,0.519853657624984,0.22411946022375587,3.142780764285304,13.872688759541363,15.23880739049956,9.162235347613242,2.1873134258451183,1.1616269724646744,-0.9129352430555298,5,0.625,1
6.9465,0.5496919439264122,0.7562368890474717,1.8097431775765387,2.9572807942747352,2.038557695772208,0.7066889008929731,0.7521973499475754,0.8283030904318662,-0.37662738911753335,1.7074630009714875,7.965629201150446,10.065750257471768,7.373180990497437,0.6768456963060672,1.0453907840165595,1.4625879545936613,4,0.5,1
7.0465,0.3753739953299351,0.5536318753351716,1.0543425530294073,1.4065061481414851,1.1692689798268967,0.4756465189058377,0.6965258493849096,0.9048503569628739,-1.6513077120950774,0.5292891515726534,3.235494710697848,3.6564789148251635,3.1108293453390616,-1.3188785357142092,0.7165092996502598,2.255496569645031,4,0.5,1
7.1465,0.3293543714617661,0.6694976397145437,2.3097191209590644,2.9074336951239905,1.2896826671233275,0.484039227841783,0.7186803154467417,0.8249369421911912,-1.9599976049492114,1.3410332892813852,11.683132448843521,10.401221417012973,3.880351594207823,-1.2748855756865014,0.8612151334524282,1.5955451412566515,4,0.5,1
7.2465,0.3141901292966592,0.7167062856192867,2.512010038033127,3.2460104973162456,1.1524117645561247,0.48098632503009153,0.5367909044917377,0.720653940839829,-2.070343088128372,1.6873483787910777,13.785504391793676,12.635098756128045,2.906918161611861,-1.3309268761289643,-0.2593027625377399,0.6953304321436709,3,0.375,0
7.3465,0.33720320005852616,0.9170386532030255,1.3285649044829162,1.9992096187528632,1.3213847070902582,0.7414685072342,0.47168472542366924,0.6520680762599004,-1.9144677766892284,2.971093145621839,3.2496589411505807,5.9020124192076775,3.7778953198992067,0.293619511859061,-0.5830019138782107,0.29476162616857193,5,0.625,1
7.4465,0.6644648066182693,1.1293288904190066,0.497835121042721,1.0390884394314779,1.7413427654017073,1.0490135988275673,0.6606559158293811,0.6591204578148527,0.24582551358241178,4.670127794039692,-1.127834805921359,1.8096855416265123,6.602842607956732,3.6049460826969035,0.512396849692518,0.3514001609405302,4,0.5,1
7.5465,0.8765628489602015,1.18390676001381,1.0609048608482854,1.0625620912611993,1.6025553915368307,1.093106549265467,0.8192420637159331,0.4913010974533482,2.0875327315457297,5.041044321569143,2.810330306508186,1.5904545142374877,5.616492557668786,4.203078364583894,1.6692296394404025,-1.0535233039099752,6,0.75,1
7.6465,0.6986762901458011,1.3797489560695473,3.0940240402931525,4.056202131527915,2.1532597552433472,1.4317918411248316,1.2858562833896199,0.6353989724945437,0.4672308317419784,6.261194781413343,16.42525760302326,13.678533370680967,8.200927216714796,6.771939222513392,4.326435150155657,-0.1548276028908062,7,0.875,1
7.7465,0.45940811198466147,1.5651775243047537,4.26892037444095,6.078935444134611,3.8013034869171856,1.5541629457532125,1.3703387554875732,0.7654150855793477,-0.9478149230883992,7.6599102865777855,28.356995521016962,27.94573312019791,18.291054243888713,7.962371406977313,5.055727923159433,1.188494233305409,6,0.75,1
7.8465,0.4695478732945183,1.2236932176647612,3.4782892254606375,5.607278457549953,3.7825609164078755,1.0843471401404177,0.8811080559239108,0.9208668496754903,-0.8624557616764763,4.497975343319229,20.615250140023115,25.186747752226616,17.674359348865316,3.5180432096124488,1.8670630803048827,2.2654873356883,7,0.875,1
7.9465,0.6883732277744607,0.5722094919714624,1.6944980322899874,3.4950092084568425,2.117975872911092,0.6600582471097209,0.7037593870597186,0.9601798941944412,0.45497729963483957,0.4281450755904808,6.528695457984373,13.089008333154032,7.500927660598286,0.4006851593633163,0.9426293045676643,2.5437240471894946,4,0.5,1
8.0465,1.1128506772426996,0.9557559614388426,2.625207292755797,5.734443329216806,3.227966081723618,1.1670787147483652,0.737711256197452,0.8382519322758812,3.7384484208170763,2.3470054949416173,12.013871119927298,21.502873088895157,12.624751323010804,3.7794764861408443,1.184861470416845,1.5661322710609762,7,0.875,1
8.1465,1.706386109888074,3.069580523252359,4.965770671799343,9.30418616280618,6.132358283534329,2.141898235240921,1.028086641101859,1.352812046922174,8.168438574451192,15.214383386287459,32.53330278885173,44.2368837027958,31.6466288405205,12.483174772071925,2.751874934785929,5.151387696062826,8,1.0,1
8.246500000000001,1.9706601486853952,4.551764142881259,7.006578794678083,9.582754165858294,7.001900878541708,2.2951298419394495,1.685198400938577,1.8415958094407265,10.467233132022377,28.597860947040882,49.84934365989404,46.76255339530179,38.430727994227915,14.53280260116546,7.020451075417217,9.593246419184704,8,1.0,1
8.346499999999999,1.5464590125694382,3.705156728565436,6.3476653339219435,6.6514022217084845,5.0298064819462605,1.6664714246754015,1.635643145016793,1.5484324844146713,6.678212136294802,19.972711894989892,42.289960834227294,28.909023527022118,24.323621921188035,8.892385988079614,6.620808743908058,6.495983259217744,8,1.0,1
8.4465,1.1250037905270103,1.9478412568937098,4.0794073593415865,3.5710030910835666,2.817316141169222,1.2809769829224449,1.6722438818789083,0.808383873422436,3.5956853312634935,9.266408118507618,25.374476457373827,13.787051886653053,12.640687666306107,5.446626065970423,6.6672131995919734,1.1608131425248218,8,1.0,1
8.5465,1.9908311268482561,2.6502059606152173,5.665853115167869,4.701003866389248,4.5679729844574855,1.6710382437369327,2.4353777801092797,1.0569241803499214,9.36969141034611,14.378578854072787,36.71228833559569,19.16861617303768,21.77244901687975,8.565382262544393,11.771012758354484,2.9152864599116612,8,1.0,1
8.6465,2.529339894115251,3.0514297874256715,5.859649657042776,4.968396479145976,4.977212767099556,2.128232434533149,5.209033666999162,1.7961157527756613,14.699108894960304,18.196138751335067,39.909896638110084,21.821356402121552,25.51269924102421,13.328528730452529,27.39303043295424,8.86225733626182,8,1.0,1
8.746500000000001,2.701549873179892,3.048371241771683,5.420521370314252,4.96459970140717,3.8787137652280554,3.53931898022257,7.097682431123008,3.3570993645043417,15.886676015912332,18.221828233227416,37.00013336739865,22.016442001167178,19.25472678504035,22.588320182710117,42.472260052234176,19.679253753687664,8,1.0,1
8.846499999999999,2.881555173582201,3.610624289172068,6.977068928956126,5.780172008256552,3.9786370682978105,6.3667997039814175,8.493649092542961,4.971573575373435,17.092509126752006,22.00161112398608,49.6043875449054,27.047458043624435,19.98300961686885,46.857714799954444,51.091704135593666,33.138460236995414,8,1.0,1
8.9465,2.3474511060904097,3.370940832726189,6.78538854340867,6.266046668225205,4.211655130640129,6.133292828670738,7.220833216309073,4.2109653296016365,12.487901577121905,19.9882689602258,47.96399280016747,29.0561369205673,21.16242132457494,45.10354820811024,38.87284384104729,24.511780214218625,8,1.0,1
9.0465,1.743572314039755,3.157385715776024,7.056925857029703,7.5843181012283685,5.692259804235856,5.25604516317824,3.6001831873480064,1.8865023457779426,8.72222314967845,18.65698837887619,49.96269937750197,35.8362417646367,29.61645872271691,38.84056707092959,18.93356796424293,9.51321399629442,8,1.0,1
9.1465,2.1523306062720913,4.515974778453875,7.906754305965144,7.16592205821494,7.06966440024667,6.584983421785983,4.365354198724775,2.641444163995133,11.669704802289523,28.331272762349762,57.52144764662888,33.6938348027242,39.2554639299381,51.926953356458,24.144505478148126,14.925759029555888,8,1.0,1
9.246500000000001,2.1031859956890453,4.4576069787016985,6.586872947693358,5.026057589407158,5.797725669393746,5.842214468901646,5.513622865867729,3.454641964092429,11.20873058013528,27.868541633383046,45.4304859095749,22.02974789132365,28.565334886388023,45.05147906952688,32.448501548541024,22.322841140015203,8,1.0,1
9.346499999999999,1.5712039713933506,2.883524153313957,3.9545319282502462,2.9316713167704926,2.88349534396322,4.100127971543343,4.693845025307078,3.197140087005897,7.159505658088494,16.312175853975027,23.15920037872266,9.091564288844134,11.699574334845247,29.39618306857657,25.138802576055514,19.22567769940379,8,1.0,1
9.4465,1.0886922636791656,1.824835730842662,2.8127891039599513,1.3760389708479643,2.1336632494944388,2.4814896575026584,2.3131790928104015,1.9268708415973317,2.984474874893442,9.468654574360299,16.746233537594236,3.4285257783068346,8.882291061033863,13.232586851144607,9.488361316580058,5.6377374772226645,8,1.0,1
9.5465,0.7012556665027255,1.2760986426552445,2.9163376042608515,1.2998579863499502,2.378123474682545,1.129465900733352,1.2559896393817942,0.5826416414913982,0.7345125567003908,5.13700055781188,17.71324041762219,2.7584850017256524,10.33302864890951,4.475646575878951,4.531005820114906,-1.3115040571890808,7,0.875,1
9.6465,0.9101787778403146,0.8341842558236853,2.014681932418174,1.1838186249425176,1.819751256755379,0.9382595800634558,1.1637151207715306,1.0877606657699435,2.2248965502882885,2.301049754413897,10.652616912149274,2.1286917784852655,6.166418233596975,2.3749612397465003,3.7535131372021,3.229415423012171,8,1.0,1
9.746500000000001,0.9919113523507853,1.9432947451671068,4.398298371296825,2.7205972434475147,1.3092497873544282,0.9533885356034639,1.2029993734745692,1.3646515385644873,2.8371371646014723,8.628745862994657,24.243745179670395,9.535686924002244,3.578797255289636,2.4532578650554466,3.7456651151291855,5.835976796643263,8,1.0,1
9.846499999999999,1.1942253831002811,2.3139854073800183,5.461770780777189,3.085541285125935,1.9089388150220217,1.031292583055753,1.5183639532839743,1.2657923315962114,4.249284941034681,12.218936130463847,35.77720355402209,12.110787923618263,7.2529662759373545,3.3390691404551007,5.864871780585663,4.853532326593494,8,1.0,1
9.9465,1.0454539533153366,1.4423595159485876,3.4710214371041825,1.9154676033764981,1.7783111776623202,0.7481399166303762,1.1738090206245746,1.020905818588279,2.6451845208162568,4.952583697010012,15.687929226046652,5.2721018416346155,6.365622772738211,1.0607060033200215,2.951861854107938,3.0448246084110284,8,1.0,1
10.0465,0.4811904611831229,0.7077626987828227,1.4919783778161042,1.3700381651487408,1.397594054735247,0.8210919355613313,0.9058047793372185,0.8612122128014895,-0.9244337676517845,1.3902271706860174,5.224970700226384,3.279941558917035,4.10707986978267,1.6947054142086935,1.8178989372456704,1.9576681563348999,6,0.75,1
10.1465,1.411794071388599,1.4812660263531894,3.095166606267618,2.649336958353446,2.478389357934967,1.396195829904697,1.244424319659807,0.9922348412388566,4.243709119242253,6.275348226193942,17.82268960707956,9.560537344666981,10.083405068797093,6.313864326782899,4.412687938487103,2.844301726560843,8,1.0,1
10.246500000000001,1.8133533319902835,1.8162497757824785,3.7045265180537115,2.997193034504641,2.5994388371263,1.5806407591936844,1.5442107549857522,1.0388344933318787,8.591606453594368,9.329074391126248,23.771588674036597,11.670237881945027,11.095127186162337,8.243050509874916,6.30146365625387,3.2212280771562614,8,1.0,1
10.346499999999999,1.6589156119072366,1.916767312662214,2.857226308446186,2.298827205675753,1.7337445621309673,2.592935001901208,1.9332073715539178,1.6583822984046408,7.505559791233384,9.83182372203653,16.35497136645148,7.865508518753951,5.8817491036756415,13.48074711818713,8.784818159337995,6.799809456039647,8,1.0,1
10.4465,2.024374994068442,2.554368532665388,3.153645098468275,2.364067409202977,2.468511285356244,5.110895690052849,4.110754343708975,2.802542715264935,10.391304700610776,14.309495295638943,18.680494439973284,8.622132189628529,9.977302677032062,35.501055384813014,20.598145259269657,16.376565538026373,8,1.0,1
10.5465,2.13603034403546,2.40062210564302,3.3523236868986652,2.9040536600521065,3.320083315959264,5.590979827728061,4.994586922124952,2.8063951946401673,11.646579519723389,13.146034881145868,20.981870018189685,11.74826580572014,16.293197556860207,43.10982931084372,28.65826107006048,16.752716245733737,8,1.0,1
10.6465,1.9953135280273522,1.4707933385760408,2.869401031244542,3.7166366357152016,3.7437197983111368,6.843456173316208,6.6885812030015215,3.1581372980602826,10.589073897229623,6.915997621997288,17.484863417469658,15.815003666384873,18.8661694009437,51.3514541488244,37.30015038202983,18.63156340997416,8,1.0,1
10.746500000000001,3.28436830711105,1.7165411570124558,3.102100446741143,4.896766423748097,4.749056041232548,10.36147475870992,10.001438099441298,4.587952373867943,18.96459636950533,8.295582798956154,19.330978430563476,22.053718920161845,24.724984617845863,83.47406354090106,60.12839749802496,30.456546662280047,8,1.0,1
10.846499999999999,4.091524623287805,2.69366971117414,3.4398818964472198,7.452205603395265,8.325535542886142,14.396292675501462,14.49345522146661,5.970528857182132,26.302395405536345,15.195873180085732,21.768942190868792,34.576699153032685,43.976027895430065,119.06908273332655,89.44217721031309,41.23699512637379,8,1.0,1
10.9465,4.983833838747656,4.223041934188195,4.967408066500189,9.402280309196277,10.710603353039206,15.543430950689771,16.9812127702536,6.998030221315861,32.57247926655841,25.8482831962405,33.03009006408654,46.02992234237447,60.843866165504714,129.444484159321,107.13835791467916,49.57572604584912,8,1.0,1
11.0465,5.041913122266433,4.831385378918589,6.039951462325949,10.250438222848665,12.42747477489569,16.646254079239895,15.296834665520446,6.857869281299954,32.546617290968285,30.720211026624032,41.90439656528601,49.69506077714554,71.24665028318498,138.30098217939633,95.8109582027782,48.87528119152535,8,1.0,1
11.1465,4.20947494277506,4.338632116976699,5.134737908589967,8.431082357807206,11.10512379768468,17.193005678866324,11.647057311356551,5.679215792839813,26.268583293007637,27.126473375749487,33.84470095014351,37.76638525313526,60.765269784489284,142.98188231307714,71.61028254459544,39.417121788637175,8,1.0,1
11.246500000000001,4.491726788423358,3.793424782502405,3.474250932478406,5.003525538799413,6.189059745953456,12.06539796340516,9.90318676543767,5.914978997389122,28.978559864901367,23.558982140576287,22.303438163554528,22.666031642704457,32.18666956221966,90.81792471330911,61.08023444667508,41.066536822146446,8,1.0,1
11.346499999999999,3.9537151536292323,2.866505874859924,2.4450062215948756,3.8928442141190605,3.85519919046648,6.118548247014404,9.206480692197824,6.149892338157759,24.09311539426082,16.248679031846777,13.46211574305852,16.134845495573305,19.074199181457793,47.26393436235151,55.537128347404696,42.77964968574756,8,1.0,1
11.4465,2.196119066910078,1.5403692495486192,1.4254963388306527,2.411811276458726,2.5538082271048657,4.153852168813546,6.146065579908111,4.350732988976964,9.359626590351093,6.265348008337221,6.125535289168333,8.96495666741707,10.265869553401053,24.829132127403845,32.77149998897641,27.33736727986474,8,1.0,1
11.5465,0.8217840663039636,0.688433037364326,1.1264725861863532,1.6771904271150306,1.40925806528735,1.3788327808282255,2.7795688481507197,2.245553621974076,1.7611612464764876,1.3896373660077523,4.141819622623086,4.879718396551805,4.53291752294581,6.119914024343186,13.736485027338714,11.517859975967056,7,0.875,1
11.6465,0.8984027444964707,0.5478960002250406,0.9849723853479369,0.9589432030302063,1.0217816466955314,1.054318657908834,1.5527289876313617,1.1444125715936975,2.3625592567517524,0.38080253826753124,2.9510906185377848,0.37745522522350106,1.523843303727351,3.5689766213230576,5.207643134595761,3.686718700138719,7,0.875,1
11.746500000000001,0.8155356866617686,0.7702205827948119,0.6880570511341129,0.28254899619288154,0.4438133401411232,0.6698359963998055,0.8715050579215086,0.8080762802571091,1.439395761901698,1.6082549060638536,0.4569377076882788,-2.091605681795916,-1.3541828329272705,0.05000738104655291,1.9252818956488695,1.554716376724873,3,0.375,0
11.846499999999999,0.49410347600601545,0.8823080453932639,0.5125508685102802,0.8300365705047134,0.4191007102885509,0.6184293549011266,0.8056629791923388,0.6722403621111106,-1.0229398577076199,2.568441779979543,-0.819275692470865,0.13938966717819334,-1.4424851623622705,-0.33217697726743917,1.3691572949749484,0.425131581401554,1,0.125,0
11.9465,0.33370070312025896,0.610527121381917,0.7155925812821801,1.070304061490421,0.4048770600597909,0.7770565915941566,0.5015971183556228,0.505161443657175,-1.8854971643967704,0.5561560168870863,0.7119937609558947,1.9951503343608579,-1.5217934030184699,1.1772219860602433,-0.3890356856617514,-0.8995549560254703,2,0.25,0
12.0465,0.4848147127269394,0.6254351043536612,0.8196610537724014,0.8559591581658134,0.4297198551043148,0.6196318034462085,0.5551881068315676,0.47336887715793863,-0.8995315308412246,0.8544830081951277,1.7402255878429813,0.8653462682298512,-1.392633635038252,-0.33753183266220865,-0.07092785203590198,-1.0906250219504532,1,0.125,0
12.1465,0.6594475045300346,0.8277849412783188,0.9561337052295158,0.5901185695807594,0.6340286904234743,0.5386185144911061,0.6732478691001275,0.4969792047437314,0.49983400082695395,2.4861732877738674,2.6965106342872924,-0.46337039325674245,-0.213755516871569,-0.9321768383515718,0.7541078524350857,-0.8921460759652065,2,0.25,0
12.246500000000001,0.6825036775182712,0.8341049377785742,0.9671257622190305,0.4747102864486436,0.7634354991279588,0.733503103088558,0.6603833799376347,0.544948933182933,0.7281425112215776,2.5214336353032865,2.6807206636352645,-1.0313480056024913,0.642485838789955,0.8226105591731302,0.6644675276469872,-0.55996399553226,3,0.375,0
12.346499999999999,0.7228327204031962,0.7347992808499638,0.7321090557845226,0.3998353554675077,0.6108940473613522,0.8299309551108104,0.6877417449581236,0.51803909291072,1.0265847702148319,1.805425193662325,0.8951415109966062,-1.4597890583555975,-0.4825043231506636,1.74967005681927,0.8220402319688519,-0.8223641977201289,2,0.25,0
12.4465,0.7323955055268657,0.5918827342123104,0.5258953016368592,0.42364098497589936,0.3160854038052998,0.8609040753255158,0.6021430103335669,0.6209494068999609,1.1151383333365983,0.7360277996245018,-0.8242960504439024,-1.3747172150503806,-2.202820876851533,2.0764258559726203,0.07064295378149092,-0.2036843752650273,2,0.25,0
12.5465,0.750124168302671,0.7518895914141767,0.7681351187428295,0.6975144367174373,0.5320254080694807,0.9615683815073461,0.8354056583151329,0.9564674826182038,1.1888114700778991,1.4709363415107066,0.21781973386529277,-0.05912320616953976,-1.6236800085160612,2.944462234873255,0.9697631424103947,2.568573186251602,3,0.375,0
12.6465,1.009801354736985,1.689367551420392,2.1837557617780794,1.5082776302224004,1.552619376795477,1.0523490824958053,1.8863574319363101,1.3616415125941455,3.0091607293101568,7.589891772632453,10.260502313114806,3.7757091327239847,4.063281425982769,3.776210156797692,7.617168630821648,5.694838175693278,8,1.0,1
12.746500000000001,1.0352576116512127,1.7853797527480004,2.826949692378891,1.5646088476409221,1.6061511655504965,0.9177045577848479,3.4201338184853713,1.7707132908476182,3.1711555732438894,8.683937805103147,17.40759568611992,4.2755316893989965,5.024340728468628,2.5128972610997025,17.740733735898324,8.996548896737268,8,1.0,1
12.846499999999999,1.6749876776711892,1.2466597395595755,2.2106844247730426,0.9964086148148512,1.1816211202879303,1.6448317867642155,4.437263961572681,2.164800670702822,7.016118660539795,4.962742226197028,11.914591427939126,1.6568230990222392,2.8622662184355745,7.325467159791549,24.96346701406657,12.079755960555428,8,1.0,1
12.9465,2.406498283791133,1.512303162567182,1.3952752419175498,1.015447231015274,1.3984481154293973,2.3724897211259313,3.5847205616598012,2.6932709345069803,13.598670321718002,6.82970646285423,6.130435916160469,1.8133735870741674,4.442226757312547,15.167193612211609,17.853065849149,16.142335134258648,8,1.0,1
13.0465,2.465012833946429,1.6935071296784063,1.3187230574647635,1.2407271636515544,1.502228702421182,2.260823593629264,2.373309493475745,2.4610589041129134,14.192143568912746,8.528138036642865,5.442232496300745,2.899653884674332,5.185307332088083,14.308787517743975,11.523604951624447,13.865108598833642,8,1.0,1
13.1465,3.1067298302539883,2.681373635734118,2.8252961260818767,2.167245321575433,2.5323046350299165,2.7527559065196763,3.6793995451244053,2.7420926810058717,18.329287868193255,14.528539598815382,15.106044330396857,7.273175801241869,10.368382557443638,16.89941265402137,19.496236929418004,15.022107681433553,8,1.0,1
13.246500000000001,3.905184903974312,3.2585719245116938,3.575361110018978,3.023473219141011,4.317670834009245,6.312956684623989,5.7782264670806756,3.8584217947682933,24.933287740435176,19.73421540070651,23.160059733181782,12.200681711084794,21.3301056974175,44.586181092400395,33.24043031432433,24.633193196181264,8,1.0,1
13.346499999999999,3.808157343812604,2.8293383079006365,4.53657787977941,3.963531715685514,5.369980538083352,7.010947592435839,6.011167608041304,3.5340450589962593,24.260631460709693,16.704442725505235,29.939522740688684,16.9801573964629,28.67538261769219,54.755202971740886,35.333799968363934,22.135722746174928,8,1.0,1
13.4465,3.111789684279773,2.6321885032565424,5.003870569216531,3.5871689466669494,4.1112558631755824,5.206328489543691,5.795801269020027,2.4239569755533763,18.815883793482623,15.450291917806753,34.30215813035645,14.312384828570744,17.534804037689344,40.187899108761194,33.82858876913224,14.07577330859291,8,1.0,1
13.5465,3.8908240294006275,3.645411978348464,4.6527740428724,2.7984759264409025,2.8463611002098776,6.195037721588572,8.140359221612094,4.118374705390985,23.00803238558101,21.694107905384882,31.4988384752853,10.55709487763177,10.263402497213171,47.012208980714306,48.631808497531004,23.911183520093285,8,1.0,1
13.6465,6.027483375238199,5.280329256808287,5.313061347237787,4.531553467488597,5.774283517226894,9.609326668418243,9.116398425858456,6.98129166428855,39.0788339099008,33.33524908739859,36.24299272675623,19.235377877036342,27.853239691082013,75.66827307882347,56.224892077443144,47.585113778985686,8,1.0,1
13.746500000000001,5.218613613482499,4.515598302485349,4.446659152862539,4.51374960242306,6.4030378040137945,10.02236297265103,9.4114878994908,6.58221118008699,29.806823820101318,24.82120425137787,27.24807788920391,19.450519651958874,34.54316022452163,81.0645585739225,57.95681341482947,44.17105710897133,8,1.0,1
13.846499999999999,3.1418347507461646,2.6609120798306334,3.411043335878208,3.340989526846461,5.889904929483964,9.813148508152938,8.777233957019376,3.7589936035938947,17.593098394359842,13.919892351532361,20.63885197406226,14.028527358814674,31.794277024739127,79.72622632253702,52.405730954542285,24.320641260488884,8,1.0,1
13.9465,4.34121304588574,3.571327340892354,4.350223707071713,3.2083519283243627,5.661556433614555,9.14433323864348,5.646059097466531,2.9359772529476227,27.296756783851823,20.773044940813293,28.344865813661468,12.732490136009599,29.22014882912977,70.3987364739955,30.263381956973376,18.079426240370882,8,1.0,1
14.0465,3.944471358476884,3.1020510829410273,3.639685375651588,2.1684486110375354,3.5042518080996183,4.974921725176509,2.875352218731399,2.3039983815602305,24.175603860740445,17.17393770362723,22.173539103819508,6.093326827467198,13.326263727234812,32.230019352130604,14.792269571068289,12.830104318677211,8,1.0,1
14.1465,2.497526187024008,1.759774882792022,2.2920507009383777,1.637463197555318,1.5743916688210482,2.9823236070604704,2.5584345110852236,1.9158363022885878,14.213621625657904,9.093273901892955,13.305024201938092,4.488396503901995,5.239008818784231,19.737104696066144,12.888726430475296,10.22622266206951,8,1.0,1
14.246500000000001,1.7770568515753844,1.4232483668359106,1.7758256270485027,1.7468043405690936,1.8758854308779522,3.4458332669656375,2.725844049276294,1.8141740584991575,8.198140246686897,6.491513171030623,8.447733880910778,5.1290042301283645,7.03002558537636,23.041801529757674,13.889628752520805,9.18480999028727,8,1.0,1
14.346499999999999,0.998673408562784,1.018384486323578,0.9681630777228589,0.9561384974360135,1.4647407453649917,2.569860783450209,2.107891810106319,1.206594790309143,1.5168546218182035,3.437970709837755,1.5751205381601594,0.585539651696618,4.074740629340269,13.200024711044435,9.136812137805608,3.7490049920573316,8,1.0,1
14.4465,0.5112667223572117,0.6788090221902019,0.4213950731750458,0.569206377764712,0.8342605466088076,1.2464833547671572,1.0416852326712485,0.7080649267716291,-0.7287787816365363,1.433318222969925,-1.4239211170361832,-0.6875741787701896,0.9933125709967143,5.214690939172763,2.7933225578569587,0.6656672453885675,2,0.25,0
14.5465,0.5324006232628301,0.6532204491763127,0.41850630660759064,0.7073022093930948,0.6840838957463907,1.2267549004672416,0.6148725444518606,0.8058413945996217,-0.5122746638349702,1.2515619865951613,-1.4466442720017594,0.13846059968563915,0.05895893337521402,5.1769590553578215,0.3132657623551124,1.4931488747603843,2,0.25,0
14.6465,0.39910482688052,0.6227465140168036,0.4732273476886408,0.6512538560732286,0.798925688023801,1.0128673515086417,0.7295084986653204,0.8020051077321246,-1.4323706881714469,0.9555724129851074,-1.0373701296854712,-0.18232113483166398,0.647815915016142,3.516997289988079,0.9386298178417288,1.5088006622609151,2,0.25,0
14.746500000000001,0.37786528747487996,0.5803223244385224,0.7704262388832827,0.6375319785285555,0.8711676691952397,0.9545256890430687,0.8178581265024627,0.6379993145309226,-1.5600263846671583,0.5942207412573444,1.1195629829170213,-0.23752171046425932,1.1005327418905573,2.978080573353004,1.6290094294418345,0.11127937564973962,1,0.125,0
14.846499999999999,0.42118134745698765,0.7203895752088737,1.067527110301837,0.5280592624803975,0.6423806400522059,0.7394861861398239,0.6199512786207498,0.5121057481298119,-1.2586325268325493,1.5949124692214314,3.568279413628238,-0.9598114851869641,-0.27226656580937875,0.9120237309197542,0.2514860216130168,-0.8466094818256122,2,0.25,0
14.9465,0.5051875332564458,0.8380628945122011,1.152040134022409,0.3830959431886304,0.6828923785017457,0.531140793782656,0.4151270177349282,0.5264066384764426,-0.5964678856045244,2.5586624540350815,4.220674205376426,-1.5532431547778467,0.05684625951851554,-0.8108683091820282,-1.048213257137298,-0.8749688886298279,2,0.25,0
15.0465,0.4824591580643453,0.7533306324568023,1.0260596014818126,0.7052974013096436,0.8174199465503843,0.5684646979380894,0.5030290489693129,0.6847877813506028,-0.7859209512948031,1.8545860766593334,3.2286782954263717,-0.09501534779818664,1.0112510355723767,-0.4580912881411519,-0.5244041025769485,0.2825013297005514,1,0.125,0
15.1465,0.5818693871265652,1.0387354598511696,1.4918458857654655,1.5153402653070647,1.2060804557580365,0.5897586520506706,0.7234700865556606,0.7463279199926847,-0.218975666593416,3.5666987793736893,6.205249959012423,3.87207550885304,3.0592972021199256,-0.2410614316215969,1.0480465996832655,1.0225477115267432,4,0.5,1
15.246500000000001,0.8846583724749275,1.4567262794271398,2.7582621940473975,1.71405786924024,1.356434507658991,0.9172293894299247,1.3209313786864785,0.8620611548755485,2.0971080761024345,6.9610042577111075,15.960735041354537,5.404764023980076,4.1984320392103065,2.0162493431928676,4.3289924885620055,1.8211291606433173,8,1.0,1
15.346499999999999,1.1951057188296978,1.7229038540009791,3.0367481555696014,1.8854693978483643,1.3901645243789695,1.40695807096968,3.508100088896512,1.247585152595783,4.520756544145664,8.89210602776928,18.86653971569062,5.9425207567788405,4.432606736769043,6.702785441710157,16.565482550794915,4.814555304046101,8,1.0,1
15.4465,1.763928587490447,1.6480085301244107,2.3354226327047276,2.3758108563381244,1.378375674215186,1.5993236649786235,4.249084783383484,1.7499383784773677,8.250537454448395,8.283171074117691,13.46012148542203,8.602137936365732,4.355230588241546,8.66415483683374,23.427999580358,8.750036599798733,8,1.0,1
15.5465,2.393431985243693,1.6737020864599026,2.8730478882747073,3.0091069527714476,2.38821163515252,1.4970957840970651,4.011351881046757,2.0017007329763716,12.92881080766751,8.387484839413183,16.63423760242172,11.65761047371859,8.877812312535882,7.651240027239131,22.3803869488424,10.918471625171547,8,1.0,1
15.6465,2.0274545749372175,2.2483069822154427,4.638059200018083,3.6046153062706128,3.230530179912306,1.4139986426490228,3.9555625749816916,2.237267831672253,9.322252624433762,12.472325991609573,30.46094815621114,15.07728064044333,15.308603747076377,6.6853348503065355,22.198225833425017,12.630627255750355,8,1.0,1
15.746500000000001,1.2884019133997477,2.4998765929391946,5.4460628122828885,3.634403586936166,3.190955844688698,2.2268953760336943,4.126157240040617,1.9098146565368457,4.742515321688197,14.505812744646471,38.150641715272414,15.61406347334036,15.465445195154633,12.952607631846895,23.15629390061153,9.139347243130103,8,1.0,1
15.846499999999999,2.44374293746313,2.260316400229097,4.338897496774508,3.0241383497467194,2.6928084892675046,2.665862154864117,5.337274533381681,1.3040387559860758,12.528183686868632,12.67247773211718,27.738099584639258,12.175381248576048,12.265907871353491,17.86255183476312,30.85185938821885,5.208524212812238,8,1.0,1
15.9465,2.8424277818393198,2.2730298515374354,2.853480380759268,2.709571050542213,2.749580681258099,3.867954210214216,5.41735744097695,2.3687908646691223,16.89470562427678,12.665309046372638,17.3122542365911,10.67278368614284,12.518898654120871,26.797969183256736,31.369597780770064,12.531934414241617,8,1.0,1
16.0465,2.6240125418386944,2.038061763571423,2.422634311560927,2.556815310037728,3.138787018957352,5.335747174673249,4.7850022873111016,3.0874495458813187,15.36718149580088,10.607853324879118,14.132807653467012,9.738152307224372,15.110269432550938,41.10086119350507,26.848895438828787,19.159013084463314,8,1.0,1
16.1465,2.6118570497970888,2.1509438017554405,2.267687334240168,2.072807289416222,3.155424548585318,5.883568737965932,4.86977582421371,2.9902744187446806,15.29493391512099,11.337709185435074,13.032080202519376,7.332981659496729,15.238458973292516,45.9898904106368,26.704088242582895,18.54004092786381,8,1.0,1
16.246499999999997,2.273789203181697,2.3365348809067243,2.8166528236884325,2.2604568040956248,3.600632116702319,5.45155372483992,5.428534841030318,2.762991080376059,12.64686967148041,13.119448709353149,17.12105636058156,8.24258409078987,17.800874800309824,41.72272357087586,30.933896495488394,16.904178749242302,8,1.0,1
16.3465,2.099729137605243,2.3273751281586343,3.7295666142784296,2.706081957174935,3.964656391515455,5.171908142694563,5.334774333591188,2.9656603776578,11.281910127263748,12.850054129236362,24.14159282297412,10.613190605739437,20.140419581891138,39.44242484799807,30.983545126730363,18.44706400888846,8,1.0,1
16.4465,3.0774372741992937,3.385747333015452,4.609470628520705,3.4302503148776773,4.2412597742122875,5.479329872652189,5.405004619881851,3.253731910590124,17.85441967344198,20.13338820365806,31.409668452789425,14.376221670728356,21.883554464482987,42.25215667116004,30.745278247036527,20.58364712750452,8,1.0,1
16.5465,3.906979590711758,4.029887782243089,4.66617062048443,3.232187968420305,3.749011116462902,5.811278090995168,6.833766654748197,3.7625849867592884,24.814038786575892,25.353109258573102,31.863414013463938,13.083074542491568,17.91466743160962,44.30594539676498,39.194704544747104,23.9809520343218,8,1.0,1
16.6465,2.99322580708031,3.06131105526685,3.3108457432849994,2.125966706272725,2.0828071469474017,4.474922699452476,5.4264006358456776,3.0388760840286526,15.299003897219073,16.207660996916882,18.795971916712016,7.5267883494727315,6.719678612610964,27.23092670872802,24.275041720841013,15.024941781316912,8,1.0,1
16.746499999999997,1.548160204602099,1.5736913789429565,1.9002325574137553,1.7413240113358674,1.0271279472592931,1.7352822194329727,2.6734684440193286,1.1507272462608882,6.925608370786944,7.684084358208424,9.759571679196661,5.663899840314431,2.172057090866971,9.23169996682588,11.494346675986696,3.8792016491597803,8,1.0,1
16.8465,1.8029875594844131,1.840952355852478,2.1320756931264544,1.6209371716899517,1.2278969358586636,1.869925534232415,3.964636291230573,1.2828085489960805,9.097902323361641,9.710397751522985,11.975992169920534,4.997850884290613,3.5251663966234204,10.876642781683335,21.623044260365223,5.213713349471442,8,1.0,1
16.9465,1.5973295093879405,2.135771187782811,1.9891455968918292,1.6323705493818617,1.2409070196341259,1.532018856009277,3.5621140184587503,1.6629836947673042,7.4163177667008915,11.82490985036573,10.642442659440984,5.024427012519969,3.603473555581748,7.244135151330973,18.297389007379255,7.974007801380631,8,1.0,1
17.0465,1.0572127744559006,1.772436123012924,1.3486599455441641,1.3834620224383525,1.554391639091191,0.8667533008775151,2.062792803839562,1.4355853270767447,3.149517524237473,8.380626434240233,4.9952549932173325,3.3391608861080346,5.283012852435336,1.700640712682991,8.7121766833421,4.799496342905459,8,1.0,1
17.1465,0.5756816889166099,0.8411033311980879,0.9221924709591972,0.8231352870809371,1.5500685687926883,0.7072115210757409,1.4919554799947603,0.843457001458266,-0.205925953285551,1.9379399055510802,2.459227095939476,0.7883737506235245,5.001989197478109,0.7902048509839485,5.994022922842355,1.0711911158209315,5,0.625,1
17.246499999999997,0.4265667438976666,0.4427721556237714,0.929996402168683,0.6501063871875419,0.9661487808108521,0.7701254019223921,1.2502161701822494,0.9401160679028522,-1.1892893971771084,-0.269483435803962,2.5411546251797925,-0.2029417116773917,1.420450795575502,1.3648622438597142,4.1489952509551555,2.173964660348073,5,0.625,1
17.3465,0.6175651076831059,0.5583264743467417,0.7144114418493406,0.5111142218746945,0.6399163004070539,0.6245501369296828,0.7154415788913665,0.7391938357467216,0.07830624707281159,0.4943439871086674,0.8704176890381727,-0.8639828225415792,-0.07358871876062512,-0.15946779743420844,0.36242777546910004,0.8060518680364447,0,0.0,0
17.4465,0.6606530332081499,0.7698644229756788,0.4984638403645849,0.5783010549035378,0.5401899726122473,0.5088410169153992,0.49912661733105423,0.5137787808134843,0.503412062053743,2.0275047176707464,-1.0377219825339936,-0.5142044895767183,-0.7478963458329091,-0.9782405488825116,-0.5504082838788159,-0.9745874137525723,0,0.0,0
17.5465,0.7516528190035616,0.8408161439667238,0.31159255938464775,0.5120453501456191,0.46397287868460124,0.4983401621521026,0.6619497195204859,0.49726850696599634,1.0701855830063063,2.5781801064404686,-2.3045041846992125,-0.9226527680491443,-1.1666659119202603,-1.1060232424309684,0.6514015831296905,-1.1537767529911296,2,0.25,0
17.6465,0.8938367120611659,0.8212733711381296,0.37262616824490313,0.40148573072416,0.541654603907611,0.3533438802397398,0.711714867572827,0.5956024668233502,2.296328901552209,2.460107408618725,-1.8196542002922393,-1.4251145072581561,-0.737926893273632,-2.33080277260631,0.9538250330231125,-0.22028099603879764,1,0.125,0
17.746499999999997,0.7505398548239078,0.7886983486915986,0.47284263195613363,0.3626862764647791,0.7373387859578425,0.339187287755792,0.5539605415446798,0.47556111845333937,1.1442124190814713,2.2167476258889605,-1.0132455989462275,-1.6703465852593646,0.38788237355221034,-2.4723713378668752,-0.3538646599769308,-1.2211859635499283,1,0.125,0
17.8465,0.7719736542025121,0.7007822649080419,0.6788730333616835,0.3584635911516744,0.7415765874756949,0.7259068881998376,0.5549825965513342,0.5814381375371628,1.2887886773373938,1.5006341108763996,0.48304906139156806,-1.68695173407074,0.46527271734500786,0.33331224288196354,-0.4219952525516316,-0.5792449599542236,2,0.25,0
17.9465,0.7511932245769495,1.0619219847703427,0.787591080447692,0.45665115676805107,0.676742160371347,0.8737978821763004,1.0779723877470095,0.8566939869497779,1.0849932084466234,3.67464561628131,1.3785744897092116,-1.1414012364679076,0.1110994133171255,2.095069525034182,3.0010191325091733,1.8508362067962407,6,0.75,1
18.0465,0.5672843841743044,1.2794370072087917,1.0454915282634125,0.7497186451475305,0.7948074615914272,0.8467114380423258,1.4943262804477704,0.9670334503770582,-0.1240368666546247,5.684359049065475,3.1839929101560096,0.2126104035114805,0.7771510122262686,1.606294591346963,6.095642538873803,2.799091920333555,5,0.625,1
18.1465,0.6742342836831303,1.4153485906305747,1.1491450646400285,0.8689475875430923,1.1407285403160228,1.847066449110483,2.6317851715545477,1.58946611947588,0.6107950409878936,6.579345682630328,4.284303153261501,0.9718766181641074,2.7044839770344815,8.991035282831227,12.41782835056555,6.7989867890590805,6,0.75,1
18.246499999999997,1.5406106903452292,1.7803294281664293,1.069866696884802,0.9418234606574195,1.582958800850377,2.5763599346361907,4.265846262861406,2.516229627630777,5.90634480389349,9.252922808211954,3.6329770822139453,1.2368554021456273,5.56877328778064,17.205580237049947,23.48808250118339,14.46474803401901,8,1.0,1
18.3465,2.373832900601345,1.6913867918311647,1.1668657327824892,1.4672954775815703,2.099888901679661,2.954297320113583,6.2731078774570195,2.8354046827128614,13.148217610215026,8.467082477659142,4.274947947487746,3.869138708516167,8.664337276261605,20.484527454978014,36.76260433419704,17.468954045049397,8,1.0,1
18.4465,4.706295250379902,3.7242491728412874,3.443733730213436,3.4617011471505235,2.75291831859039,3.078530465026582,6.076533424793538,3.742238367319185,28.03613165202587,18.94396729054275,16.222041741023627,12.743931963981849,12.588673456873357,21.631252361491114,34.76365449066681,23.65412286613556,8,1.0,1
18.5465,5.810583599856109,4.877932629170657,5.884657537888812,5.510682360550137,4.241374617446813,6.86420714666704,8.502699279067695,4.471120486284322,38.678484742579,30.480476685982104,38.31493364402159,24.809771491975194,20.66997121410091,45.103059146771066,44.74225828813515,29.93085458680384,8,1.0,1
18.6465,5.585044699762687,4.259058556386741,6.029646370495283,5.676584425772292,5.708672804406724,9.834363389378996,13.566826485559835,6.117009605641967,37.69246915190197,26.718987404983558,41.94643367097666,26.257711224396413,30.31969527368301,76.16338447473943,81.36612754828904,41.44093006417591,8,1.0,1
18.746499999999997,5.5452007669998435,4.169818521819167,5.462107188998464,4.715036467378977,5.357286088358479,8.010934203770926,12.12306504206611,6.154335357984512,37.42324047137843,26.33141598812225,37.93423147771009,21.286916158374243,28.02283035298993,58.46913678637839,69.68101663232736,41.623411847580456,8,1.0,1
18.8465,4.354947923650308,3.5297735854436727,4.526800982162654,3.7489360434275123,3.444668449798607,4.463562214052858,5.501539969157715,3.4118836793977483,26.918242659173167,20.20634421120873,28.301289773922523,15.747102511634926,15.886686325246753,33.77216989910042,28.93946317537703,19.017131429728348,8,1.0,1
18.9465,2.7124071262891727,2.2646891962919518,2.9484387066115416,2.6855361339960346,2.9771314039868257,5.083663729423123,3.0159419768130946,2.0797362920623987,15.869151303124536,12.622455217836174,18.15527825786372,10.592778814101214,13.656354525452837,38.90942105981156,15.485343396170883,11.193745784000644,8,1.0,1
19.0465,2.6944928113491313,2.383049653772019,3.296611483977259,2.74630248904562,4.44314641374323,7.145259822118305,4.000605789692404,3.3280649902238086,15.656467070293447,13.675114844821046,21.130468532751173,10.928823348528322,22.64376477413198,56.18461144622415,21.362458509986727,20.385780011919937,8,1.0,1
19.1465,2.9030612380398355,1.9471712537099612,2.83274734411854,2.3647488644111583,4.28172447861778,7.273908562308077,4.387991352156613,3.712139938886017,17.098159682689026,9.849747937665969,16.993499065819204,8.153797231358833,20.82974478156635,56.74824113950032,24.698271295517408,23.858293857706208,8,1.0,1
19.246499999999997,2.2764802962877364,1.328102232209891,1.7069305891190352,1.295511684467508,2.720616541369509,5.929448885889315,5.253990884901171,2.7415266024534914,11.493726849614166,5.874719519121744,7.873560539877918,2.927654064526518,11.792454129675098,45.72259271928279,28.85857506126911,15.777725694510845,8,1.0,1
19.3465,1.2808282260246833,1.307817698479806,0.9708040560980549,0.8773984695442201,1.7381580668376257,4.504743339420365,5.865484279547296,2.1067104244890706,5.191376260693435,5.923129357335708,2.811328762769301,0.9903141176664653,5.935784829091175,30.70208806480953,33.60020960018703,11.725402542899225,8,1.0,1
19.4465,1.1020224787451758,1.1354160148880983,1.0310509072284664,1.1214176737832384,1.0213216817777484,2.4222330522604536,4.758373648968107,2.235897566927296,3.8160399404986363,4.522657314824449,3.3010286149544688,2.064651127977925,2.1344528617008756,15.15069302203261,26.803850290006174,12.749840634100467,8,1.0,1
19.5465,0.8494769714585434,0.7894705426293791,1.0515302114520202,1.3676551269628991,0.9727756002843436,1.719808503424341,3.178965315454221,1.799096122884139,1.9189418561301395,2.085720043623975,3.498749478865404,3.577568184149559,1.9677166655472431,7.261047552087637,15.247458969264033,8.698956287805014,7,0.875,1
19.6465,0.7893509482209303,0.755142335758341,1.0758532346026435,1.0748987603728222,1.0343131412291955,0.6387820918659192,1.6001093801253925,0.9570347345172441,1.5105188021142475,1.8936961313502505,3.467326582716067,1.8126844382774434,2.329462001496947,0.052646266753840786,6.748931742230322,2.215655552272618,6,0.75,1
19.746499999999997,0.8253155875941848,1.0253879721452914,1.4043494428449574,0.921386250131524,0.8417802045451948,0.8021185494525641,1.46790314457335,0.5845050217040944,1.7238369055347806,3.8023831924292852,5.9436364609191665,1.2400132154276278,0.7759521848166429,1.5334082111546101,5.8017621338905805,-0.24913563472318326,6,0.75,1
19.8465,0.6224341622764958,1.0492891098993051,1.2472760209957736,0.8868513788698054,0.7951288504805332,1.027860215064116,1.0871869221348975,0.6703677888662248,0.033713079261723206,3.9642107327668414,4.528123469905376,0.989040454167804,0.38387093534595385,3.5740550507391435,2.8492030835761626,0.42768217865618496,5,0.625,1
19.9465,0.5699639543597295,0.7031858892963967,0.7869823535843584,0.5879432009089677,1.0013056458046634,1.024033689093215,0.6626549854102984,0.6368589240073758,-0.22120757536173932,1.1773709167218176,1.4725203600599317,-0.4738974362182307,1.9258225031233998,3.429609925591899,0.5456681027162908,-0.051685555610348655,3,0.375,0
20.0465,0.6048158099053071,0.5768730893979487,0.6821454143566623,0.7163952006814449,0.7992748782451565,0.7555360466031937,0.7826001433952116,0.414663846907526,0.09889326942006976,0.5367132159855604,0.6045339378902709,0.06182659218571009,0.6330189226862812,0.9476145024587599,1.2199908969481654,-1.796999822141882,1,0.125,0
20.1465,0.776528606144026,0.783975199335274,0.6049067180489288,1.0907683725014112,0.5315705387098283,0.7007871097812277,0.9536759060132571,0.46828839177447196,1.1566399441157693,2.157919002556076,0.03844551848279529,2.056257038092188,-0.7518991738282996,0.6364027013258406,2.439426813945201,-1.3418350343144951,3,0.375,0
20.246499999999997,0.9600214642734222,0.7905402645827099,0.7336609429893782,1.2973220850494722,0.471567866901158,0.7526990149101501,1.0811036556842772,0.6438847349038882,2.740627744214819,2.202239878213183,1.0018579389262827,3.302029212164891,-1.1371651285110012,1.1549055146890455,3.4090026586939604,0.19896705517259644,4,0.5,1
20.3465,0.7078376294250077,0.7120482750427968,0.8877953842788371,0.9797216015475796,0.5727375222612968,0.6861629854201223,1.193745833901781,0.8146130900461629,0.28811452095479373,1.6131301799390323,2.2761231352717233,0.9115461643315672,-0.6768372875422718,0.6202412710952341,4.177089852610232,1.552044580213744,5,0.625,1
20.4465,0.31034279263263803,0.5500936899521356,0.8418754889489641,0.39221514757546455,0.7962460680329246,0.7166570831385107,1.0561438546055082,0.8314860594195493,-2.0991019075385418,0.2409060326484197,1.857880389635855,-1.6697533100442827,0.7480196145194674,0.9062670117787719,3.114059253604063,1.7021770997285899,3,0.375,0
20.5465,0.5527928517585579,0.5290401906428385,0.6373478679203987,0.7233403873103463,0.7282380610113424,0.8272546905919432,0.9048092650225686,0.7536471958378554,-0.581762946314058,0.1144356103085932,0.23217119486842983,-0.1332801395366818,0.3002171374019461,1.7951345217704628,2.219487680623377,1.1208335316308886,2,0.25,0
20.6465,0.7081730410010842,0.7244616872028067,0.574140823041825,0.9407211491625272,0.49511752591163205,0.948007514648643,0.8692950499106817,0.6720417153279942,0.9010140642893779,1.6647953610074842,-0.19796322898214636,1.4103758794933907,-1.0308508778859617,2.846431123045636,1.970193154741462,0.4168911059885534,4,0.5,1
20.746499999999997,0.5894480990113607,0.698387176693084,0.7028617933282554,0.8219083362828377,0.42686597251054165,0.7423830077969021,0.7128667848008402,0.7116120708616758,-0.052809194533862874,1.5117635115230177,0.7342141051060477,0.7594264611817326,-1.4776020394264913,0.4287933426313698,0.9920115720799493,0.6626382981848729,1,0.125,0
20.8465,0.49226109976852034,0.7521827171983634,0.8051470803072635,0.66643014811099,0.5145322148314808,0.3389975294805707,0.5475986229316487,0.7211532266012096,-0.6916227172956186,1.8765058408565787,1.4794968098113694,-0.02446509690426578,-0.9534148202988587,-2.5076248990025793,-0.23718494810774463,0.7236144825831019,1,0.125,0
20.9465,0.4510748972149244,0.7487599601063039,0.6434313828958522,0.5581193780061554,0.57420807323037,0.27573049061819227,0.3770200255883598,0.5691595380819903,-1.0525403427445623,1.8253921478261828,-0.07071781071405767,-0.6454506227128554,-0.5700989889337529,-3.080261755599564,-1.2021199840704975,-0.34505713848039093,0,0.0,0
21.0465,0.4432511641356619,0.6291090474090336,0.28270442935564594,0.7450221577682071,0.8264643524892553,0.5667816170753306,0.4427562608551048,0.8907333659055336,-1.0992400938389058,1.0377287174860856,-2.716639712297929,0.17477143473438994,0.7567658087759002,-1.1279778717147835,-0.7798448175863535,1.737202338570251,1,0.125,0
21.1465,0.4748219798663124,0.8048476072402987,0.4857286468713088,0.7299635103809831,0.8418419248220752,0.6772858727016546,0.5586839552024636,1.0265150034835382,-0.8336083169208415,2.2470300350564347,-1.7020547512072346,0.018263797011211627,0.9488180735684527,0.3434693403111083,-0.021476321972531815,3.002918528772781,1,0.125,0
21.246499999999997,0.6224705937441344,0.8470717130171727,0.6433773417772815,0.4183863712472033,0.6010092029002063,0.6510442045546758,0.5622522663394897,0.8244143518646362,0.1108931084151315,2.6094465254726975,0.023597694335301282,-1.428197575334402,-0.33090163627089053,0.07190655271532745,-0.0031648758171880986,1.5273260291360768,2,0.25,0
21.3465,0.8362093661182596,0.7093080113703047,0.5748847725717797,0.48050895201191113,0.7151933469697789,0.9268113628866635,0.6442094100409007,0.6574806605804862,1.8727964048081482,1.6383807068985434,-0.5183475085901488,-1.0774436349825334,0.34203737008245055,2.4620770731876247,0.4739359393837126,0.30453288013497104,2,0.25,0
21.4465,0.7800330275801861,0.6292066773760122,1.010683261192004,0.43621840222466307,0.713162060488766,0.8643906566328851,0.5916755522869479,0.6280166100903541,1.3960839658797426,1.0484645101415433,2.412326008596631,-1.3553771619333959,0.32447592977658424,1.712801960272277,-0.1185135240457821,0.06944329688861554,3,0.375,0
21.5465,0.6097931305266296,0.560924112382214,1.1299436798739357,0.5355461102068492,0.6179260766453634,0.7043631671302792,0.3776728865948568,0.6382817830214768,0.2042287643198485,0.5343176647182155,3.9095575478791393,-0.9738966993811445,-0.22556670456574518,0.4433025393537849,-1.4072478639105,0.18889793964155877,1,0.125,0
21.6465,0.708714829845898,0.6673617267435792,0.876232820395203,1.118847092301167,0.96556081013461,1.0002489207092047,1.1518674354574099,1.2260314178404939,0.8596919073276968,1.2011068080684892,1.8025727643731415,1.9060822538832563,1.3589791674965037,3.1887194020390606,2.434257008861095,3.5068691336245776,7,0.875,1
21.746499999999997,1.2292930032942018,1.2577477325531021,2.074222909471827,1.534123724355168,1.7100801372612418,1.268388724942066,2.112873415771114,1.9348705051227753,4.386586008507443,5.036404532201272,9.281080945076287,4.389879431621445,5.835887766642271,5.708977582550583,9.483470669133364,9.561714261239402,8,1.0,1
21.8465,1.369374542557194,1.278050121647935,2.234276345150825,1.3710199876948455,1.7024722464959603,1.1324331950307363,2.190791783580632,1.64373497656288,5.774068664233881,5.24913697603709,11.78413036488274,3.4952450096568395,6.007605580531108,3.9647415340798036,10.364135961458869,6.484167474437089,8,1.0,1
21.9465,1.1228430653779766,1.148795797120533,1.9146718800592109,1.296395324402301,1.0447489706897137,0.9740673453479245,2.5079900382087246,1.0469016002165117,4.038711164666898,4.4446391750452054,9.687479460764528,3.1685075144123407,2.3053732670260487,2.5444327431046796,12.060796033584118,2.7931678207629465,8,1.0,1
22.0465,0.9044511809076893,1.4172682792355284,2.617456065221939,2.0751722535610986,1.1931758039417222,1.4423627312372211,4.520848848088871,2.1267695496186216,2.272524118806777,6.4492041532062725,15.569167357489093,6.9937177676862925,2.7052737913257916,6.7700616670328975,24.651187708751717,10.614267649778926,8,1.0,1
22.1465,1.3406886047171,1.3402738121176694,2.393649802651011,3.006181908412315,3.3475266176650234,2.0949301380142002,4.789634917850577,2.2087629655166174,4.585046206558813,5.725191230456698,13.432128362683338,12.096556785501939,13.672535837619732,12.738104992026635,27.044358388277978,11.515662677505091,8,1.0,1
22.246499999999997,1.808020743450204,1.476644108222455,1.6013010464355781,3.1601702829784974,3.7634923534792777,2.950353182686209,4.88587443912642,2.223232157134119,8.865342940965572,6.742004772469358,7.758136974955724,13.022625226552941,18.160862720304063,20.03720470917335,27.27915191362316,10.94255413713814,8,1.0,1
22.3465,2.096264848008279,1.4855876758978421,1.456664761606339,2.1490679626966567,2.3910647395324327,3.0801475218960057,6.426401459350645,3.5878312543434294,11.224214155505006,7.046541755654272,6.668696476593371,6.475929695780495,10.143079947032486,21.284553353807695,37.876236210476065,22.07852997495473,8,1.0,1
22.4465,3.150817877225322,1.9406293661661822,2.4575982831589864,2.121372529915389,3.180329066591759,4.36941746304001,8.66540759223195,5.147076908408287,18.45384977651439,9.571179877413599,13.181545211400964,5.94438513644668,13.902992266944281,30.30759484052297,52.2435966317076,35.026130466054816,8,1.0,1
22.5465,3.1593803618127514,2.0703408152451055,2.9389803963749377,2.9550427734744535,3.669137258771425,4.8958082676877135,8.888099403007322,4.817617442380556,18.168320297726538,10.39407212350601,18.16825315138426,11.494074118791595,17.83206127176508,36.32348489029186,53.88529923515031,30.961802756055942,8,1.0,1
22.6465,2.2095749371439517,1.3945120082318725,2.6550769683361577,3.36698249801064,4.381839269235407,6.2128392451273715,9.362945393378594,3.6239305251934324,11.836461538655582,5.8199513397267335,16.113567541629926,14.108009293221196,21.66962246240874,46.18700714442191,56.424044157306824,22.824730326778116,8,1.0,1
22.746499999999997,2.1407013333791447,1.2639759676886586,2.0566493612840167,2.7464128381305986,4.105679905630982,6.176727569726866,9.11262338033849,3.5647085945132573,11.698075004114791,5.465338985106904,10.47241736089429,9.325412261009264,19.035878932700886,45.79277953993074,54.51784952796899,22.991457330132036,8,1.0,1
22.8465,1.8382417656947974,1.8236904878051368,1.3480656055597613,1.4616298458288768,2.0706733172782603,3.9418144612683617,6.893653460118693,2.7621525753138974,9.059504568070754,9.253145506341319,5.711194583695667,3.499229417694141,8.315931484070168,28.540309554159485,40.97382866205642,16.123192590853552,8,1.0,1
22.9465,1.988076037823501,2.2926534661020597,2.094189970289857,2.554020960709722,2.185625144274822,3.0344496929908686,5.3911085908891305,1.8351973044937404,9.86483670059611,12.931106578801858,10.83532378701447,8.840791179116042,8.884363783350995,19.332981985657675,29.149401399056327,9.137090638838226,8,1.0,1
23.0465,3.13395753392827,2.699884990752078,3.396709457588753,3.29013329505381,3.1669156307182917,2.5821842890498554,3.524987714983299,2.081257287737958,18.61546262185141,15.833608312462621,21.228189040631865,13.810250070511906,14.73579139370943,16.535519312556758,19.410382068682523,10.716566669030174,8,1.0,1
23.1465,3.8645718597579313,3.3429675719161933,3.8140131321818456,3.132484401556996,3.6351197739060104,4.341152718297359,4.822844611756326,4.107447275097983,24.77815751957502,20.420014051290376,25.191162828324003,12.946597127968088,18.169039341151077,31.435599857836095,27.319533330726752,25.290545271906662,8,1.0,1
23.246499999999997,4.729785565541388,4.42696497883859,3.6202355263282646,2.864818632293882,3.4982671577678146,4.427790420257539,5.83847562785032,4.627480179386403,30.81366856242797,27.795620106018415,23.572009639343488,11.575525969255471,17.376188008715488,32.17160199407433,34.70459730380235,31.1147157875731,8,1.0,1
23.3465,4.903292545787612,4.673769970623558,3.9502556815663232,2.2141168774120685,2.9959765165234677,2.690013035380133,5.160418008938706,3.947044095045245,31.577318749030077,29.33972876027501,26.134450533010767,7.533434092523745,14.11028199515548,16.833898825890508,29.69413912020793,25.98751820340423,8,1.0,1
23.4465,3.3380046557634007,3.1677841365067168,3.4524398764533015,1.4293184474120229,2.201249732207123,2.5578634521437107,4.784207452704149,3.083908964754569,17.78507650710259,16.109133252370064,20.814705398141243,3.917655527384127,9.269681790441105,16.182835849371912,27.511670751381793,17.633614846813668,8,1.0,1
23.5465,1.4695209458225542,1.1389807434941175,1.8319067929181758,1.2925696806991556,1.580234703144866,3.07826462068763,5.675832708157741,2.092225671560918,6.444801497591005,3.897637479021214,7.211290968365683,3.178481594895777,5.437399334099934,21.46981326048309,33.57049332139007,11.19085692054548,8,1.0,1
23.6465,0.9412773028912845,1.1662740582877467,1.7387355485377625,1.4457684221119393,1.6475056651379427,2.923116502781118,5.362965011290112,2.6752254837203138,1.7670285497388483,4.369496470721317,7.349248477695237,3.927036079791267,5.728037050748652,20.172382663659306,30.726693079417643,15.759788786095815,8,1.0,1
23.746499999999997,1.0653391606800273,1.4099078711184763,2.254849664576594,1.875233831889986,2.215039619629956,2.805659584628984,4.076532317548235,2.7362076340513273,2.36851707330383,6.619670692963258,12.97590986712367,6.309836598401537,9.258620689807548,19.281004606059366,22.059881836172934,16.55875010994533,8,1.0,1
23.8465,1.3392375986604894,1.4359562105943997,1.973954872090145,1.824963442407979,2.116904874965084,2.2986965835963895,4.691412946149285,2.236236164742585,5.228899551170588,6.779244369514998,10.639638361595726,6.033004978300409,8.651733779702992,14.067530092586383,25.915205568740117,12.559648909518723,8,1.0,1
23.9465,0.964891253089174,1.3326350375017861,1.4047922753434523,1.2701974812458532,1.7285234930326732,1.2653625136181168,4.4991657802531515,1.6700432872867725,2.2879105991005866,5.96514537377323,5.7216427667946155,2.755055317903026,6.475954981493369,4.4768207739442865,24.24254925531337,7.888841551000914,8,1.0,1
24.0465,0.5326980159228807,0.9351415732679657,0.7301311850901208,0.6996896030209653,1.355308472218619,0.5678435011885348,2.248497676167451,1.112784617152757,-0.4278663378166698,3.0556657359247525,0.3599882028003,-0.15027362229097885,3.751337563219966,-0.6057725434456915,9.69866558551754,3.8125758422224347,4,0.5,1
24.1465,0.5180666296479259,0.6533796649525875,0.37802930465300755,0.9074274931546817,0.9065458663931246,0.5605338512937919,0.9427956570459117,0.7982410503100991,-0.5227597024431564,1.1095191600933154,-1.7367699505747185,0.84561673240568,1.5155600288815811,-0.5606984580855235,1.620268296325108,1.4099139874008053,3,0.375,0
24.246499999999997,0.5820971628261132,0.6606090352054965,0.44749222969876873,0.9430668244825738,0.9478951811977199,0.522033096201039,0.7081001193024128,0.6178089420621437,-0.026188476231898124,1.2205970565948354,-1.195461536143658,1.115505434459359,1.7172482508079974,-0.9268868087623597,0.5710279179027472,0.01695425834546103,2,0.25,0
24.3465,0.6189651972630587,0.5903702093267507,0.4283246592394853,0.5653798070258,0.7523302399773807,0.504891647372372,0.9975699438129212,0.47196722730702145,0.16579130496902456,0.567440461163407,-1.4197472143898242,-0.7158730412898002,0.37265355677451495,-1.0542758111405535,2.6448214308570765,-1.2015328537839836,1,0.125,0
24.4465,0.5241880546731071,0.3416640133862304,0.4247808115128519,0.6394985477267752,0.5551191842436154,0.5478663549686623,0.8230035392296523,0.5026583921949997,-0.7074837076532131,-1.0783737305377636,-1.4587173344977082,-0.2920040922728881,-0.6038061315353979,-0.625238378976134,1.2086331208576302,-1.0140386295798463,0,0.0,0
24.5465,0.556653679278758,0.37046538443452853,0.5395533880185034,0.9497045416772809,0.760511960682989,0.5253918863535987,0.6056590712247734,0.5482628465495887,-0.4504325693634238,-0.878623014949866,-0.636052735754828,1.3736872867045995,0.49354714468438865,-0.7765998023995959,0.14107907915813048,-0.6050192594092334,1,0.125,0
24.6465,0.6311782520795991,0.9075404522666497,1.0448603054629089,1.1332828670463344,1.291682090111331,0.4574367000007597,0.7890215790219117,0.4675116828395667,0.30478411561130164,2.341688915610526,2.800197310822459,2.452489954354719,3.538978155971764,-1.4890263382884052,1.4744888018162094,-1.235324021719244,4,0.5,1
24.746499999999997,0.5689694934709651,1.2589235824338436,1.5628413786286595,1.3079337844267043,1.628125944249161,0.5923114997597112,0.8508986681053556,0.7867938096940564,-0.11040436188010387,5.429741104379189,7.4637025267129795,3.334315238090544,5.905952273899203,-0.5645282783356026,1.8763961149278279,0.9209653959593882,5,0.625,1
24.8465,0.6267375639982972,1.1049550569995203,1.417188076067424,1.242320480190003,1.2879695959039346,0.8192387329291959,0.7647602589966824,1.009141050440287,0.3298664207086244,4.26117252734502,5.599741059148922,2.9054781347121725,3.229153280732981,1.7690548214487976,1.2456141411176425,3.1334352985568956,6,0.75,1
24.9465,0.6601147686484645,0.9017486266193249,0.9587110138619569,0.8592770386827948,0.8985935128264213,0.8522036709827343,0.7422441807740237,1.0630486980556784,0.5601690956180719,2.97320758359727,2.2317068853533457,0.9026536535126077,1.2658959733817967,2.041705338428549,1.1535099330901741,3.5385874838651734,4,0.5,1
25.0465,0.6572874732095859,0.80834503558107,1.1974128196633396,0.7050408699188665,1.003582859582792,0.8804558151826075,0.9100581495544644,1.0074675230643273,0.4677322612204937,2.20108331668106,4.339451960767646,0.19163720153874547,2.0487162896857614,2.1837103549201755,2.2509428764045576,3.02287037325035,5,0.625,1
25.1465,0.526482872959729,0.7535085372335804,1.1212999913620405,0.8479782369764851,0.8675052576825927,1.1064095761297634,1.038439996030047,0.9145709187993502,-0.6827167438442368,1.9099972624731003,3.513099834206514,0.9076503136843985,1.2276396744363125,4.107972461876586,3.0661101764297216,2.2776874086867855,4,0.5,1
25.246499999999997,0.9957355177282622,1.5724424195226103,1.007207876317935,1.247480232916112,1.0378172916122,1.0581973839410082,2.4453501838975353,0.7828030524289248,1.8311807390191617,6.733564085096641,2.5455047639655253,2.811013451102869,1.9546835515056873,3.6670137736504627,10.233972436798384,0.9976430808223375,8,1.0,1
25.3465,1.738748056615053,2.0559053506398337,1.8933188785652533,2.036008222909754,2.103188524476949,1.0124548479612523,3.8258217543866957,1.8642134358605116,8.222633023070069,11.029178774219005,8.944655159034578,6.672761132918641,7.779798147424083,3.218613546035885,20.803306186120295,6.96770714810696,8,1.0,1
25.4465,2.428810470195524,2.3902530495739165,3.2510546511127623,3.3432634179790743,3.103775337528553,2.535902048377487,5.010907895271429,2.438732388291748,13.736026788523914,13.53851758888683,19.780923470743858,13.458788963835364,14.644400556563193,14.236775144212485,28.78188983817941,13.535529091652268,8,1.0,1
25.5465,2.5510934581096345,2.148499737161366,3.0937112188024725,3.1486611933916864,2.8337452439132798,3.2856926549742584,5.0262611896648215,2.0418634754979763,14.754829152021054,10.870973849917764,17.937479664845753,11.89326187882755,12.689448543333585,23.03679425155328,28.687769413650027,10.708380231324707,8,1.0,1
25.6465,2.3449712640488056,1.5030622440696841,2.149398563139733,1.9009067932653474,2.367729394688762,2.9636581118377023,5.792171795930449,2.7268135568643634,13.164390052128622,6.620536569662815,11.32300889155392,6.240581609511462,10.342499141261158,20.445192657283734,33.14446818235338,15.416850997955182,8,1.0,1
25.746499999999997,2.6800355365271193,2.4046149004840665,2.8995326232585525,1.9562640949763597,2.534578559786507,2.4027510586358423,5.514269752342519,2.7527712907884396,15.590803544657021,12.678108052188664,17.308338445990426,6.690376019816943,11.49023254321739,15.365021709157906,29.983961201146325,15.45056931395587,8,1.0,1
25.8465,2.5321671825838035,2.8510199312915234,3.1004785685185086,1.8801464028937753,2.397973603271919,2.7619911529480805,3.545086565361955,2.7309350940025316,14.35303724228254,16.87757996603026,19.578540459689858,6.324111527769174,10.668457390909598,18.100375135120302,18.099619601564367,14.907937056801861,8,1.0,1
25.9465,3.1392181085160287,3.153179945029773,3.1270695003570093,1.7481160105801452,3.3419372990245786,4.815835930757806,4.943990368737881,3.912151132297225,17.830974057813002,18.654316562350463,19.527076976538993,5.480605328267801,15.655519988485635,35.05833186573982,27.03580933193815,25.274870980912507,8,1.0,1
26.0465,3.5881207801512724,3.668345841838812,4.2935953060770595,2.329977540801743,3.519047885800909,5.214382300226065,6.00521550234612,3.9036990904204107,21.83185898727783,22.096692922480916,28.065381120195667,8.249565579525749,16.48122554984906,38.795361811884156,35.476463349020875,25.545236033213918,8,1.0,1
26.1465,2.599684638342385,2.7018063825182574,4.010622472684962,2.341033039667202,2.066932923693306,3.478558427691531,4.788620408851711,3.282983628212699,14.126380884799987,11.528184233639758,25.111490998929767,8.407942519044472,5.82776242786926,22.85071957767437,25.844935925611534,20.814430953149326,8,1.0,1
26.246499999999997,1.3566275873859555,0.5952668960510763,2.044694832927595,1.2795631485327361,0.6988754420783383,1.6783011752484949,2.2966036318276406,2.4168195229940292,4.115069747071128,0.5038826706757321,10.188784797748967,1.8020101260316925,0.15698068202067914,7.4586612183603975,8.520060002909322,12.25877868955421,6,0.75,1
26.3465,0.3718898444515891,0.5139370438101021,1.0189498057482014,0.26892704963473335,0.7482012730715351,0.5779179662003758,0.5478535696740695,0.9940337925235564,-2.2130008988643635,0.23710645503238864,2.9997305021994083,-2.5868391210200095,0.5567884001635425,-1.0035206978670892,-0.8268622831852532,2.337502712047363,2,0.25,0
26.4465,0.14733688405629158,0.4043366990723997,0.6623245754759773,0.07185510007435439,0.5714706564773664,0.26377508946453954,0.23816847392599214,0.5726447449434465,-3.2892683721803126,-0.5933829885185365,0.4188186005993685,-3.162387525628662,-0.5643243563489468,-3.114213379872028,-2.0974525917895064,-0.3284318682167589,0,0.0,0
26.5465,0.11255990783979057,0.26746566237166675,0.4505184898678186,0.05475218385910212,0.3863521555281996,0.16814339918740415,0.2106326772695412,0.422637558621261,-3.5730587012700155,-1.565973697877246,-1.2695553396186943,-3.2640591306334104,-1.6880589251053832,-3.996837038461988,-2.2901526216129526,-1.5457014818402173,0,0.0,0
26.6465,0.06847453384936907,0.16403456257884752,0.27146702144787044,0.028656799386781347,0.24349937981246833,0.08162838559078471,0.16072568555653627,0.2750988632586044,-3.9052893299863967,-2.308264477212856,-2.6779443217624874,-3.4027690080966675,-2.5621460698410403,-4.766872508220611,-2.6195824293451593,-2.7037728116190913,0,0.0,0
26.746499999999997,0.03584940826167844,0.08580779025699152,0.13818349605093636,0.011455765295807408,0.13416074481647827,0.029197389766535933,0.11660803146017701,0.1610632921273603,-4.154559215526231,-2.87626075580924,-3.7402898713943475,-3.489369598601195,-3.234385776642617,-5.1613088441017965,-2.910756040284059,-3.601663243268995,0,0.0,0
26.8465,0.013981976820894478,0.033256578315637594,0.05144103561457471,0.008276081327301362,0.057659940256289885,0.033589857199275326,0.07877851199911107,0.07758770417971413,-4.309440008206043,-3.2298186486615843,-4.359365629974209,-3.500210249522581,-3.698441655753856,-5.118099207867626,-3.16045241102761,-4.266104477757634,0,0.0,0
26.9465,0.010726925690253184,0.02405340131935784,0.0450764474104742,0.014940498731892562,0.024086469198577317,0.05189448689785834,0.04774817273311961,0.027481463018135796,-4.3242883881079655,-3.2708915996819825,-4.380035214729782,-3.463039283246448,-3.8496159604988067,-4.933385479473585,-3.3662590246557293,-4.598761988784754,0,0.0,0
27.0465,0.018697708164704244,0.04113780501479018,0.07411449595645991,0.020264010079489872,0.03992228418046199,0.06036914989064632,0.023708128713368123,0.032804970431390384,-4.25945519442361,-3.138458957083298,-4.125473458463216,-3.4323111063914937,-3.754576307399029,-4.851991562756737,-3.5282746789942494,-4.554275042201526,0,0.0,0
27.1465,0.02433506157244881,0.05204997938327495,0.09050707437138936,0.023541100565743992,0.05258646459236722,0.05987011460383935,0.009188066386498168,0.04968387956512294,-4.212768433756133,-3.0516641195702214,-3.9834583473061413,-3.4143811336968586,-3.6643456414538895,-4.856483266954304,-3.6076445904768666,-4.4008136474009385,0,0.0,0
27.246499999999997,0.026945925567082026,0.055135752443074504,0.09334915049081971,0.025511722586968204,0.05385977277531977,0.05335902639836152,0.013935752154728323,0.05663043353077151,-4.19225390492815,-3.028427553017345,-3.959940542070445,-3.4037736294761674,-3.6557817356435214,-4.9156209498468835,-3.5801038922189155,-4.341109209877543,0,0.0,0
27.3465,0.027510623458897782,0.052925521213392356,0.08713367202267464,0.026692982071846297,0.04696217466711062,0.043203536857650826,0.022675091227490687,0.05493177026210013,-4.1878822900919355,-3.044704839578383,-4.010228569097018,-3.3974639259533177,-3.7001197084088937,-5.0074168368209175,-3.5160658631050774,-4.354997320416068,0,0.0,0
27.4465,0.026743726334503504,0.04739746105597062,0.07537783517327576,0.027395782164276156,0.03510785343326064,0.03140400003123552,0.02901007802691208,0.04766979515170826,-4.193753061536647,-3.0851193032663375,-4.10464376006328,-3.3937217805287667,-3.7762232500250525,-5.114023770720864,-3.4719876459384302,-4.413979378391037,0,0.0,0
27.5465,0.02514866410687014,0.04014469543486249,0.060970303168516225,0.027685809778926304,0.02122796552227477,0.019577135271190267,0.032843313132562335,0.03737909832119764,-4.20592194406795,-3.137843897576593,-4.219729904300454,-3.3921771558686777,-3.867034986821452,-5.221963194167364,-3.446006177789173,-4.497023662248919,0,0.0,0
27.6465,0.022989587470870217,0.032346861988158414,0.04613182074991632,0.027368852566513065,0.009214461898271149,0.009361145922922587,0.03443372114082963,0.026246368062640524,-4.222386562756018,-3.1942915886974803,-4.337700592096852,-3.3938746773506527,-3.9373759073520556,-5.314618741770398,-3.4352943869990695,-4.5863970889954935,0,0.0,0
27.746499999999997,0.020298073125502462,0.024810070077963795,0.03250364774426806,0.025999269172156746,0.008340775708456415,0.004187573955959944,0.033744769905448085,0.016088269966791142,-4.2429868431645845,-3.248665801539819,-4.445402137196486,-3.401268143463735,-3.939779396705563,-5.349111074468999,-3.4399439151077673,-4.667175314552347,0,0.0,0
27.8465,0.016909383485043884,0.018034597397702228,0.021264589430125106,0.022916325612863612,0.012759289580909895,0.00648540748958785,0.03049554914764217,0.008355592764253014,-4.269197579177107,-3.29741288195952,-4.533175076366601,-3.4181928792144287,-3.90844962896478,-5.328892355633707,-3.4620526679921824,-4.726401721924593,0,0.0,0
27.9465,0.012459192588005676,0.012284667748567686,0.013259821044941701,0.0172106186466113,0.011791412743546219,0.00691970432939597,0.024087335076202556,0.0044539187987817945,-4.304899903886119,-3.338696187256492,-4.593821404576136,-3.4512766253039815,-3.916479428772787,-5.323812711289404,-3.5071295277574523,-4.752317318190962,0,0.0,0
28.0465,0.007098863333647859,0.007654178935485102,0.00932804492954651,0.00967139682584347,0.009767854848793662,0.0050455354015528815,0.014651708801382984,0.007500770822771704,-4.348942864068587,-3.3719289614324333,-4.62176084502925,-3.4936172101023346,-3.930907235912733,-5.341760131248438,-3.5765888838407425,-4.733802495324945,0,0.0,0
28.1465,0.0063908214302521105,0.004119808640429879,0.010696153334129432,0.013455492011916054,0.029764048471568633,0.013114494976258353,0.01156800418497054,0.01782682489293546,-4.3547239485012685,-3.3975240424250734,-4.612449222209161,-3.480824938482166,-3.836449183350153,-5.291009788105888,-3.595701338301075,-4.660142794854195,0,0.0,0
28.246499999999997,0.01660816710336721,0.0016806111934173109,0.01766813518934162,0.033951097932481626,0.06889114036309216,0.032404800413129715,0.03093043599694211,0.03608180098388551,-4.285498942747464,-3.4144697633507017,-4.562114105627538,-3.377927255072943,-3.5993221957197816,-5.12588070198443,-3.485898093670537,-4.521227503482021,0,0.0,0
28.3465,0.032005423352832,0.0009538579052493975,0.030077165813041637,0.0639255198391325,0.12621936061697964,0.061172442483205185,0.0615235973809445,0.0635444992745723,-4.166646629071869,-3.4180578503519157,-4.467851668990549,-3.2171221681702376,-3.249093682056946,-4.872256400180573,-3.2803048658525147,-4.308283652654473,0,0.0,0
28.4465,0.051907889619400245,0.0016773566194124788,0.04807469045074274,0.1031211416364332,0.20293440359245424,0.0997576078727382,0.10144354809214365,0.10104656239654541,-4.015611468241244,-3.412698613990833,-4.328121257994987,-3.0093473737753804,-2.78085751164879,-4.533193099444441,-3.016358284944177,-4.015242517641942,0,0.0,0
28.5465,0.07642283341559891,0.002197719447260867,0.07161013966896973,0.15180008776086235,0.299419684453333,0.1482886744196149,0.15073680308193235,0.14874470688171065,-3.830030432894573,-3.4085048050257147,-4.143666054191492,-2.7513898650429103,-2.1906166835269314,-4.106010951300829,-2.69146418085279,-3.640823663340133,0,0.0,0
28.6465,0.10523015213197191,0.002365631687224099,0.10014311736744408,0.20926222096623898,0.41409038836582496,0.2059264438973654,0.2086928289281548,0.20579551456303852,-3.6116750521655248,-3.4072347544068986,-3.9188733839118193,-2.4463214370821746,-1.4872415728649662,-3.5974291626594357,-2.3090449462579947,-3.19139234123975,0,0.0,0
28.746499999999997,0.1372902513598715,0.0022888035572052896,0.1324229973832479,0.27337676646236947,0.5425022222903505,0.27041873093583446,0.27317636130078876,0.269913134597539,-3.368072004196037,-3.4078013796764948,-3.6635645813398843,-2.105025317008349,-0.6972216018046873,-3.0267397630724666,-1.882563736353611,-2.6845967859110997,0,0.0,0
28.8465,0.1705682234033583,0.00205559152277802,0.16623017903016724,0.3400244238743761,0.6762538944974008,0.3375479609395886,0.3400813889920225,0.3368371256418247,-3.114398783752153,-3.409509307471166,-3.3951682663664644,-1.749065195875539,0.1284852454786325,-2.4307192049502175,-1.4386722773253906,-2.1537165099840565,0,0.0,0
28.9465,0.2017317474091638,0.0017374943845621053,0.1980856430579942,0.4025000228669404,0.8018060804024989,0.40053636730532094,0.4027213460713736,0.39974728030888335,-2.8758609316045414,-3.4118257378216055,-3.1411769591738983,-1.4139946435947635,0.906839969477518,-1.8691359590884449,-1.02138124692421,-1.6525408631526524,0,0.0,0
29.0465,0.22585985687709842,0.0013885193278973633,0.22295906559628226,0.4509305368968827,0.899316556989729,0.4494607997101785,0.45124284550594473,0.44868245661266726,-2.6901502436624973,-3.4143568457745035,-2.941747740472889,-1.152806291362887,1.5147195375601794,-1.4305266647505162,-0.6963625097060487,-1.2605146687438815,0,0.0,0
29.1465,0.23625712205418292,0.0010465921740144641,0.2340785966087728,0.4719026547430368,0.9418914347727322,0.4708760104489882,0.472250808883358,0.47016588552079897,-2.6095365008523372,-3.416829534598388,-2.8519327519013795,-1.0388705101617708,1.7820883090118713,-1.2371254837698231,-0.5546106218431937,-1.0871348099976461,1,0.125,0
29.246499999999997,0.22458206287049162,0.0007365664255227501,0.22305218736815074,0.448717903701451,0.8960891743813546,0.4480651321576338,0.44906283804439534,0.44745540452829374,-2.7020051809078103,-3.419066802228258,-2.9429288247826157,-1.1675406524266567,1.4882431401949103,-1.4475750750002307,-0.7144374835561359,-1.2743813071098864,0,0.0,0
29.3465,0.18006055349853572,0.0004734010607679953,0.17907459023381464,0.3598181042371943,0.7187659200099951,0.3594602387411324,0.36013296013388774,0.3589649666329248,-3.0729990176122146,-3.420963774402963,-3.324769821940836,-1.6866305034660576,0.2913231821463438,-2.307605580437403,-1.359312122528801,-2.042030081168242,0,0.0,0
29.4465,0.10710269558619959,0.00026491549603772734,0.10658851852695368,0.21403793750131136,0.42762050900141135,0.21388963763411215,0.2142586563210719,0.21356891542439288,-3.6784707605340143,-3.4224706580729283,-3.951142512884189,-2.5342690790311715,-1.665329203343533,-3.714569871357972,-2.412917800497679,-3.2975908881618348,0,0.0,0
29.5465,0.1327684273373727,0.00011587465976908174,0.1327569818852068,0.26554989427695413,0.5310922832746695,0.26547825202396746,0.2654541897705112,0.26558243511270396,-3.5716371135794507,-3.423538183868932,-3.8369596048341688,-2.3838467597595856,-1.3155657106964151,-3.4640901985379298,-2.2276812124973833,-3.0712214225588177,0,0.0,0
29.6465,0.35581834375599536,3.6693933951865283e-05,0.3557735743788763,0.7116449559966667,1.423253895907277,0.7115391119277694,0.7115272312375125,0.7116625864800068,-2.028845925933492,-3.4239768511820188,-2.2302322760961304,-0.22179078328149646,3.6825687337095485,0.1289963393529522,0.45691099359213594,0.1405416336910348,1,0.125,0
29.746499999999997,0.6571714874262462,3.492448413582101e-05,0.6570883963647709,1.3143341184845674,2.6285975460883044,1.314236123969463,1.3142606878942238,1.3143048987705992,0.3581112940173717,-3.423971540808276,0.25452710757911123,3.122890736103607,11.413843506663845,5.688038066737607,4.611375479362024,5.107569427007692,5,0.625,1
