t_center,rms_emg1,rms_emg2,rms_emg3,rms_emg4,rms_emg5,rms_emg6,rms_emg7,rms_emg8,mean_z_emg1,mean_z_emg2,mean_z_emg3,mean_z_emg4,mean_z_emg5,mean_z_emg6,mean_z_emg7,mean_z_emg8,channel_count,frac_active,global_active
0.157,0.6280150361019106,0.9956023735676782,1.6054289030534223,5.3528634881678085,4.87694166954191,3.1367504680713307,1.0918129389528677,0.8304854080506828,-2.7817121705470855,-2.1616853341244977,-1.7759274898767754,-1.9049376532946447,-2.4094779728537743,-2.2824879250670955,-1.8142428454698567,-2.1837428923534095,0,0.0,0
0.257,0.8376756126007113,1.6419197442984057,3.3272853748478997,7.897702256706574,8.207779447598957,5.277953592413808,1.4996926608283208,1.3178500883688793,-2.7365861356295875,-1.8491656035781538,-1.2159781477585887,-0.7429267012054872,-1.4725987112185082,-1.906340043125502,-1.7683595325653922,-2.072271392171696,0,0.0,0
0.357,1.8365942613537931,1.4955034640564462,4.229831517713351,9.909794135562732,11.056813136020038,5.952506990085748,1.7327915500823772,1.501687815151131,-2.4162474259527706,-1.9311431410909754,-0.8553262244362916,-0.13443230253712582,-0.7835837407464151,-1.7751019462853654,-1.7356871727281735,-2.012545619244924,0,0.0,0
0.457,1.8760103574093763,1.2520763564540807,3.2229762994058904,8.59308456302079,10.047640152679676,5.457891449184443,2.179533491413043,1.6656916950698073,-2.372250039253141,-2.024243597219365,-1.3037661820777433,-0.7414618561427283,-1.1523841228306906,-1.8705738602091138,-1.691852760688296,-1.9916810553127682,0,0.0,0
0.557,2.7420868127927185,2.386231997377661,1.2319756161308484,5.473778223585597,13.733236257685116,9.079981797105127,3.6438936290795616,3.350242612500378,-2.1901201837661324,-1.5633320441754646,-1.898851681971039,-1.5048358156922537,-0.4609045938633941,-1.449993589283376,-1.5294279163205415,-1.634264778196553,0,0.0,0
0.657,7.266370785936593,5.395214498283894,5.529843041520978,10.506140506806926,17.553373797249538,16.28714611406974,7.785732654468468,6.864092977609544,-0.6800654110206,-0.3303939311409517,-0.9680415174378799,-0.18779386252181365,0.7823287628074823,-0.4500343646456087,-1.1446075032403704,-0.8160791875235963,0,0.0,0
0.757,8.048854551047883,5.727128869549387,9.227843670524715,17.533576999767057,19.272343814970878,24.25852295267322,17.227418486196616,9.676276206855086,-0.27897867762034256,-0.14035437492591438,0.6138506161396675,1.9804597231893737,1.1464334009795123,0.6756010210979919,-0.10379605142970842,-0.0791390938137972,2,0.25,0
0.857,5.664797290987589,4.530975729474831,8.691353569739382,16.199344367732245,16.926134533488202,22.389726416007424,16.59601989992895,8.299752638618736,-1.1552396587099365,-0.656277128694829,0.49873608142471326,1.4495912944332534,0.4020629348428904,0.360350911868524,-0.22509610685813208,-0.5100538852736802,1,0.125,0
0.9570000000000001,6.966185820792306,5.855116073341655,5.760278796670063,9.16392176466327,9.93747524020581,12.491649925691073,9.887024266786899,7.045750380404611,-0.6666402726381048,-0.02215307991614791,-0.3639989686309058,-0.32744393043993014,-1.048977532897588,-0.9333358930581543,-0.9074819991283263,-0.7291448062454541,0,0.0,0
1.057,7.764116267982244,6.716472299202912,7.470660932806469,9.31128453059069,9.628427898269386,16.784796729861096,23.70632459499203,9.46367282292062,-0.24054915759055362,0.4474625263964317,0.06254273358019521,-0.3074157378895376,-1.0898457057028366,-0.42536008306901935,0.5290705583635955,-0.08404712691542762,0,0.0,0
1.157,8.933617304479064,7.805059228588701,9.961938902617844,12.022902339552306,12.879969335029443,22.266047860704063,27.78238731948084,11.9124293895372,0.1300093274499393,0.9045741081689489,0.9676913301657531,0.4566434844084043,-0.42653391280136416,0.5273175642662065,1.2976207446490782,0.48141822468181744,1,0.125,0
1.2570000000000001,10.887493138544732,9.470841596846554,11.998377352233494,16.595142226984393,19.248660936314604,20.211314810999426,18.5924788766971,15.352026368011419,0.8820985875617255,1.6581804742989725,1.6521788410739398,1.8598796841440013,1.0366525684597971,0.18996148006432115,0.11963208123797527,1.3256184246341423,4,0.5,1
1.357,9.5812429723916,8.048237223473757,10.83225885697924,15.767645466704892,18.05714121626291,15.474639151540968,16.36597694713613,14.530633914760836,0.3481873896223619,0.8580302331097457,1.1590534636537941,1.5354033620033758,0.6936151982623595,-0.4861857651068687,-0.14769297427174946,1.0970790969366755,1,0.125,0
1.457,10.001449198141087,6.448455489913361,6.9319040390411795,11.936347274451807,13.932872838147011,18.375933324325228,25.148284904810495,12.60768045182083,0.4897389703612244,0.2889426847596281,-0.024020677366442738,0.4757308550948225,-0.12396147790053069,-0.11593298410088837,0.9032786862146802,0.6835034220212307,0,0.0,0
1.557,11.277628850865419,6.5940503365665935,4.791570711937539,9.042890734345374,12.967145913067634,20.789421585503543,23.732650116229006,12.015807290169672,1.044036865198172,0.3540639820890177,-0.7938818884847944,-0.6609941434127806,-0.408678969058745,0.30058607625192874,0.7331331456660808,0.5212352168940996,1,0.125,0
1.657,9.584795241104619,4.8113808633054145,4.052104143158598,5.249529925625311,10.634653496261896,18.239267940350334,20.780854779725196,9.278984512734631,0.42189046550897,-0.4338219869107629,-0.9711313723288857,-1.5392569119858048,-0.8645075781720033,-0.07964731953224906,0.46639353775154085,-0.12257219521612686,0,0.0,0
1.7570000000000001,8.436840739761337,4.185508171206323,6.159360003765129,6.342715213544489,13.4583269671377,15.598456906835855,21.994328024039046,7.645707727142774,0.01009658006673062,-0.6774118379493475,-0.3715216650702967,-1.2133806541064458,-0.19405269986117024,-0.4612531669098344,0.6426467332562592,-0.5445345260112358,0,0.0,0
1.857,9.218061707737919,6.665111256948211,11.057758488020038,10.403639500185164,16.405216002668126,21.400251640236384,21.092119403726862,11.673243671689907,0.257549387483194,0.27775626694104244,1.089635432152487,-0.14334375890981937,0.5114762533978354,0.2525145373599116,0.5271057369288921,0.2579409062617626,1,0.125,0
1.957,10.418187968126674,8.648464618503313,11.274289153951996,11.662749473614562,17.106947767600694,21.93497277913695,17.788019788047336,13.184036936345914,0.71916538433836,1.3227269738919412,1.2495417830829072,0.3552215690243799,0.6869544427944568,0.3365031400236962,0.015749426869734084,0.7657060061579359,2,0.25,0
2.057,8.653900196346656,7.33919194866446,6.4938785980645415,7.833246895313712,12.835777164931537,13.313474595805612,11.989346851299297,8.748770400096705,-0.07895790564013952,0.6037296509936768,-0.2245850185385747,-0.9039227223987817,-0.5450132017245829,-0.8021718669327355,-0.5320010553596498,-0.3650491339843701,0,0.0,0
2.157,6.857889626476576,4.505484917079402,5.884082386339486,9.663492118364836,14.965991125734584,16.984840929851206,19.191210768533956,9.075471838737075,-0.6751565596009372,-0.6260570665485211,-0.33673834880090275,-0.46171804593298404,-0.25312671696742817,-0.410350892107248,0.18863927676013398,-0.3213274049983464,0,0.0,0
2.2569999999999997,8.387470906113174,3.983362051890428,7.911959081857723,14.718571941630803,20.928719751605904,24.016127850606992,33.00834046984243,13.240950707503814,-0.05898164125752272,-0.8141996800455731,0.3001511867614792,1.2901689013507756,1.479491676210015,0.6899391606923115,1.7857776610474285,0.781874522078515,2,0.25,0
2.357,7.1966321939406255,5.565931501353508,9.97684551888282,16.442898046836437,22.01911877739184,27.065583615747805,34.59343710208809,12.316989606030587,-0.5482946110329596,-0.14219636864785348,0.9325067246877614,1.8156240063087814,1.8357160180863883,1.1970390198471927,2.021604427177796,0.5055033180556224,4,0.5,1
2.457,6.78076252840165,6.643402102315531,9.708099795820255,13.450662104672924,17.794197957086443,24.441695234815953,22.90569318308591,9.3056862409296,-0.726066698765762,0.3862225732581083,0.8305785950327207,0.7706940276209702,0.6804665497142874,0.7835795015575553,0.6099683862159766,-0.19527351222478956,0,0.0,0
2.5570000000000004,9.650581510965534,7.483955146759708,8.986981862828257,12.579940681320634,13.84350610041864,22.83469598266496,15.529789638150914,10.92942534370595,0.3732148979424351,0.7677853074107677,0.6637926602399101,0.6108652838516987,-0.10548102288900532,0.5899988306420096,-0.1310764722533785,0.2275532401146469,0,0.0,0
2.657,12.01895304298292,10.74072871581783,11.24378086487586,13.894065813952793,19.028887830214135,29.664794313684627,20.55537014850691,15.695316219578963,1.2959354607751385,2.146125541950495,1.3995073467308459,1.094739523930136,0.9957377096025676,1.4938797973281221,0.3232521281636334,1.3152751004170127,5,0.625,1
2.7569999999999997,14.844439154080874,13.166644668907265,12.001230816863181,13.587222432497768,23.726339694299142,39.05764454823209,25.56243745353769,21.77214284233518,2.298851397984076,3.3595602780525065,1.6725164520886735,1.0082408042414062,2.1521503440265066,2.8164209413168306,0.981686597502564,2.8177339986348495,7,0.875,1
2.857,14.361642584766484,11.023446131032047,10.99627351280046,13.302461314420103,21.251195708772812,38.045568799902945,24.78660734320004,20.589916119109933,2.058559858723653,2.2225513708698,1.3417320733959863,0.8757130752677854,1.5183491769484248,2.634228385995124,0.9466680170009901,2.510748109451538,5,0.625,1
2.957,11.588601915582354,7.385249909042691,8.75340319528725,9.735356750077157,14.839883708484676,28.602083280093,27.874982410871777,18.072784479392496,1.120353506469914,0.7443965202616517,0.5123266330769869,-0.30581426298802644,0.1007943805590898,1.3286441703393164,1.3213957404175276,1.9778727325414365,4,0.5,1
3.0570000000000004,10.991789436273116,9.362026454026267,6.322514907086535,5.123973350783099,11.436720566941387,24.27073272992972,28.178444337004784,16.750794778838326,0.9504722894473533,1.496240418943902,-0.185946612624241,-1.673980513419353,-0.7048766855677937,0.779639560278007,1.3572224924933627,1.5582113904599837,3,0.375,0
3.157,9.810568966496445,11.072546569952697,6.19249890139862,4.047840532396809,9.289399044999508,24.662100283467165,22.560691299718147,9.872519690705579,0.4899226416407365,2.325526436215851,-0.22491193355282366,-2.019993047359178,-1.183554172713069,0.8502973361791604,0.7047361760973914,-0.13593387521696645,1,0.125,0
3.2569999999999997,7.807929182596584,8.068351055874345,5.018659013352288,7.703679076928029,8.183675092333035,24.399996171322428,20.80389441879856,5.468698328517258,-0.23209547249919912,0.6082622311660646,-0.6420619054079407,-0.9786050051777961,-1.444174119183829,0.8007480933276787,0.5163077764431627,-1.1525253668078586,0,0.0,0
3.357,7.678699415906988,6.454133132058811,7.015454921881313,9.619763439334797,10.652075481500829,26.751462872693324,21.214564798635774,8.489297578810566,-0.2717162669235771,0.09086760070124603,-0.15589226643887238,-0.19658366716339998,-0.9793812559655253,1.0814358137785356,0.5473238871358133,-0.5712867552272961,1,0.125,0
3.457,9.336094331557533,8.284703671223795,9.155812198012242,7.863155354620922,10.979538926724544,26.65775500371376,24.909454854699682,13.879125795934408,0.331703092157242,1.158618649810524,0.7032762490179832,-0.8104436596645435,-0.9768040734439548,0.9814604869182814,0.9452071715675558,0.9298410138285895,1,0.125,0
3.5570000000000004,12.70536077252447,11.235291856423943,9.884614969600312,9.914921862409724,13.833893733341695,22.291788828910413,24.935315412086897,15.316089623199096,1.4397312005745373,2.3018657672637746,0.9333389556631433,-0.39453233007152316,-0.618676384563328,0.35406108891428983,0.9591703604484291,1.35608319007213,3,0.375,0
3.657,15.201138931736434,12.154019447640406,10.039146721452093,11.805292686739717,20.14736922554692,24.998075830065105,24.84535233088348,15.308954265665015,2.4193262368232213,2.767670676664854,0.9794798417060605,0.23108352636582224,1.1039231494017743,0.8128424428327257,0.9684055638161905,1.3453867766045398,4,0.5,1
3.7569999999999997,14.460594784789588,11.215979630491004,10.055949426080621,8.153070756624524,16.869245415952147,25.1331456501005,32.811516055060004,19.885953955099943,2.1687867301235726,2.411949738827844,1.0014034151247284,-1.0072298728089417,0.2202693218434711,0.9131981481022364,1.9050661265902928,2.3895240551448165,4,0.5,1
3.857,11.258750423092144,14.800018447337195,11.553578982387517,7.104429064663746,12.071826091831571,26.006362499393934,30.756478042668437,17.952555904115023,0.9442688033842845,3.991366901289143,1.5070349553333575,-1.1154768660044412,-0.630442884145639,1.0239644915135018,1.5838573271833538,1.6386019112705417,5,0.625,1
3.957,13.12546795750333,17.271725447360648,12.210807781424307,13.314227760409961,17.362621283230293,23.197042822670312,19.83217161600126,11.403303315852074,1.47804291388486,5.241792990505465,1.7382241984431996,0.7266328155301469,0.6926527481048107,0.5064309601782188,0.3613957783455185,0.27884139400683144,3,0.375,0
4.057,15.370627191125946,15.7500701406964,11.079829408527864,14.961752061331579,17.34129464454588,17.82458388264928,15.605732113037734,15.357972482261594,2.459024462273726,4.498998430169168,1.3260411847818818,1.3317726228598743,0.7030305227241798,-0.16199157063091837,-0.10202398364311256,1.2508847539056382,4,0.5,1
4.157,16.901565225318787,13.542751301241779,9.460240864334745,11.344562581368319,17.07666446063409,30.85364090158548,16.71154589164134,20.770015633928804,2.947517217712136,3.5416282092117357,0.8133012033462714,0.2285637552772287,0.6326511270658356,1.4826810616770048,-0.0004317800274659944,2.572667965746083,4,0.5,1
4.257,14.435118340255055,10.72461685164724,7.105347607065059,7.005828604963034,14.490412209586411,31.85735727343199,14.006247158638846,16.8395015719109,1.6301799181209327,2.09547812733661,-0.02217125401027497,-1.1271591586181118,-0.2734375962124077,1.6940115518039167,-0.5136413241863776,0.9274215792623623,4,0.5,1
4.356999999999999,7.966908357485484,7.751045456569796,6.299442818983007,7.879888559034764,13.559960015899529,27.828938677073147,28.85330062078229,11.263035157784731,-0.221534291021484,0.9094401404538516,-0.26137858903120736,-0.9325819887338488,-0.47139080351460844,1.1918937189917438,0.7098303395389115,-0.1561012157861559,2,0.25,0
4.457,8.56820313777303,6.838156118085183,9.357784211724995,9.692620966716804,15.269657920435176,27.3318096344293,36.24712202185763,14.50425364176936,0.025537410299004006,0.464136712998062,0.7413947587275448,-0.2035118699108954,0.07036416379818569,1.0475169785022087,2.1623446583399764,0.939517288332204,2,0.25,0
4.557,8.686076410541522,6.647995407852241,11.63077851613293,8.122708202898975,10.272459657497233,18.88023500504998,27.375827216913862,13.307488736792067,0.09906187067744894,0.36862457336333404,1.5419629520440032,-0.6628928081719282,-1.124053410023644,-0.09930445115943427,1.172574488387178,0.7398480211854387,2,0.25,0
4.657,11.262151529492,9.945292742237601,10.740481081620958,7.334799404873029,17.04138483838691,34.539755999274156,27.458030111791444,18.175713958836837,0.9720364840288097,1.795523225908486,1.218176328267337,-0.866570283545457,0.18187322728545968,1.6865640285388988,1.2512574782871944,1.8485783776021396,5,0.625,1
4.757,10.814245163633505,11.215117824837058,8.680703337356352,8.233403340243697,19.665812581620834,37.32883500020625,26.67581824251578,18.401052782163404,0.7484680573936963,2.489374035184122,0.6026820787471073,-0.6231588422933874,1.1843897206019431,2.3230304868738343,1.109886366949897,1.9634950895623653,5,0.625,1
4.856999999999999,8.406219423820456,9.38292157799658,10.26604491161083,13.573116222941797,20.04124415277043,32.43731106758092,32.614043907194606,15.434669084369785,-0.00538525355844463,1.6395386691176266,1.0349320339200017,0.771113116603304,1.2447632705563003,1.717686648330859,1.6687121914421756,1.3506892078046564,5,0.625,1
4.957,10.013090404400305,9.106248724726433,12.102435352894664,16.746760096582854,23.549108845255507,38.301786162471736,38.20336902171063,15.425342580243408,0.5781651507550972,1.531421032009621,1.6193002813025454,1.8698022603433784,2.1197568160429023,2.6348831857921473,2.4822399368038175,1.3212345346010048,7,0.875,1
5.057,11.072305057177845,9.246102574230585,10.478247918184278,13.228238525324349,18.516445504937508,28.6558576355748,27.887909540192197,12.962715217074283,0.9838318049353199,1.5843090135036597,1.049832687601238,0.6789317705830402,0.7161687709760002,0.8821089151168516,1.1650694321945925,0.7285611578457278,3,0.375,0
5.157,10.799281587331688,7.237710394728313,8.158020852628582,8.214836755672694,10.582098369371446,10.947695983387378,19.91550084797043,13.686190011267318,0.8819802575762082,0.6342862875960875,0.3778054890222396,-0.6195511652586786,-0.8881923171086091,-1.142545330724848,0.41888874946078314,0.9178512547502686,0,0.0,0
5.257,8.964354019383578,5.0985714754505045,7.270961673558674,6.44451114942527,7.727492624163272,18.190781473233134,22.36697111700629,13.012032617038857,0.168904149209042,-0.2931188903271562,0.05233382703200916,-1.1772111917537336,-1.6524709841630247,-0.31506041220182235,0.7011557528408943,0.7540589166010353,0,0.0,0
5.356999999999999,7.842419157321368,5.114565345249285,7.046895230411143,5.260437430182254,5.296318465451637,20.922101314398514,19.493814381822414,10.345439005393345,-0.19348975166211774,-0.29045148200350207,0.0248398795584229,-1.4990001770813222,-2.1553382291753183,0.26839285531336393,0.2777336258049148,0.12865805066709873,0,0.0,0
5.457,10.755738027707867,9.034386840689473,9.195973760462156,10.80715362876226,16.46572547280028,31.873647708390674,28.321852544632655,15.948738428428905,0.7715064777823599,1.260019087003361,0.7092015514031129,-0.18461308082951292,-0.13003662659447676,1.46364798592588,1.053677928957759,1.2520813948778846,4,0.5,1
5.557,13.143128764011744,12.548571844746704,9.78107629875179,14.71262875380811,21.730329281898538,40.98022629873198,36.949183347650006,20.448095739736317,1.7024840894109379,3.025246053691169,0.9226887585676732,1.2880057939006586,1.695630766926778,3.0830519493666633,2.389345300349256,2.602623985313359,6,0.75,1
5.657,14.468122781931566,12.359001186322168,9.23680841762751,14.00316580220166,18.13166941101428,33.76145171379991,34.45606826036385,20.92858381547723,2.165249518979054,2.9921356119273215,0.7754240434432041,1.1070788110840897,0.8556988663516456,2.0156749960832405,2.1320057947661986,2.7399441722656563,5,0.625,1
5.757,17.398214721300313,11.642613791446209,9.547852110800724,10.846274177863583,16.3427658812202,31.178195871318486,36.614381888340404,22.859765439145313,3.1706607842101766,2.666366670843432,0.8684453249576904,0.09662778052897866,0.47121649702815305,1.726097832986526,2.365682288871777,3.191339826659786,5,0.625,1
5.856999999999999,14.985129477011432,9.239301834285662,8.278585426610725,7.304406253176534,16.58512829779958,33.29651878461361,32.67127573683931,18.80826044002793,2.008298111383014,1.1601572511803337,0.3754816516922593,-0.9382539960112917,0.5352539624921223,2.0639915788914007,1.773751639298807,1.8650024097183018,5,0.625,1
5.957,9.804805758199976,6.521337641719396,11.60753498953996,11.182529243607929,16.474991178900684,25.290904490324767,22.172981886204596,11.460723438026799,0.4794801515821042,0.21232406292092204,1.2472031345493844,-0.01205698151297686,0.5258146216758688,0.8456496934451889,0.6843596544450203,0.3463659100048483,1,0.125,0
6.057,10.66682059771985,8.534297876303473,12.776341557156858,12.451030955734538,17.231724209780975,26.477149090704852,27.51806360969229,15.81955314493258,0.8304560821153844,1.257225400416754,1.8086413264905095,0.5083665837894964,0.7161726174290068,0.9522319656788719,1.235556677047208,1.340468948483118,4,0.5,1
6.157,10.54301785479291,9.429277875082418,8.656896264775272,7.970488331016307,12.937841860132226,28.551674553137552,32.957985661507195,18.472563143588335,0.7965619143088014,1.585891084230757,0.5176310481146966,-0.8517670680356323,-0.598636158936554,1.241017415795051,1.9353625449392193,2.021883600110354,4,0.5,1
6.257,9.617402392814023,11.745666674097237,8.64250892919023,7.666445684872496,7.27209605060276,17.400122656828668,29.634657308412148,13.402197315709612,0.4224321537148444,2.554257254669626,0.5347337871812513,-0.8551097240745049,-1.6906511040245342,-0.6387346415267661,1.516808245823137,0.43504308626944993,2,0.25,0
6.356999999999999,8.69334525403948,11.647221356831334,10.547780195034273,9.151985947386823,7.54464271908938,15.053059905349986,26.536436460201035,8.85433522663384,0.0626186450756492,2.59548217996836,1.1494293047078634,-0.3420459395036974,-1.5835770125637771,-0.8261962433065635,1.1757995872309919,-0.3313060883787763,2,0.25,0
6.457,11.285861426714359,10.203868707082044,11.034794048265063,10.531349086720402,10.329229248564388,20.87607619421142,22.964677685586853,10.622356896742705,0.930270589105038,2.029176897443182,1.3093263908582333,0.049782326976431146,-1.0317643508510215,0.29445888060162406,0.6659751458706051,0.20698940779541747,2,0.25,0
6.557,12.010364209913723,9.716510133062636,10.625800982512885,12.296074123018181,16.755261197895184,24.983945811151195,24.557988805872885,15.65775471048684,1.2878619921908496,1.7954120820783253,1.2212854066520111,0.622900132312976,0.48686584156623036,0.8728376717479014,0.7582588403148874,1.2275940533376755,3,0.375,0
6.657,8.85555278196418,7.458128734173007,9.216595956249465,10.445612059436248,17.975415890257036,28.101937605055966,34.97487198299294,19.21125169976727,0.08011809034172904,0.7573053068608608,0.751114660016003,-0.04730265768879102,0.8573377360049921,1.3498058956876484,2.0932060491059774,2.255486219987721,3,0.375,0
6.757,6.670742547784554,6.5605858137470525,9.686733067097663,10.686403857146994,17.02289511301414,26.946484996621955,34.76453289078994,18.128375626880846,-0.6847485171031877,0.3676671387377939,0.8787835667393328,0.001185400292617017,0.6440013590648376,1.1861349416187021,2.1352601531157775,2.0164226101010874,3,0.375,0
6.856999999999999,9.267989767667338,7.033882809286472,9.10035613556669,11.130292129746522,16.517603370329663,23.133685133980723,24.94672651400382,16.28496055733091,0.16975111890225816,0.5914576119282866,0.630820970072992,0.18480566854035202,0.5092804065040675,0.6172376091859473,0.8869801618844357,1.5748061572020484,1,0.125,0
6.957,9.649402582802258,5.710136632966161,6.814815372003665,10.4229018705365,18.432683581600937,21.365463189972235,14.823568342342616,12.397054331823286,0.32558644980635687,-0.12797942716856806,-0.020310271444999972,-0.002684609211642347,0.9058067828677807,0.38993517744714834,-0.30612470422448446,0.524384952803786,0,0.0,0
7.057,6.581945044288843,3.944444752369937,6.092240497678811,9.385987984117714,17.71737016800899,23.621189309177637,22.47847018930262,9.588579415821407,-0.778384781448025,-0.8566524976567692,-0.2973068678506927,-0.43372449741631564,0.6832837624637078,0.7080285794839734,0.38078334664318925,-0.09319465639725218,0,0.0,0
7.157,6.81207394651498,4.756296331665461,6.465263635724682,8.311500511499725,12.405905526719392,23.77976728055415,32.42199049146439,10.562869073917891,-0.645617641728277,-0.4869780811178244,-0.1920460789677705,-0.6770912299336156,-0.43751232755139846,0.73310866038649,1.8386352251917863,0.18013049148396124,1,0.125,0
7.257,6.4240650225084766,4.38856469001552,6.302507016662575,8.743331184514373,12.283454943753378,19.97515837253472,28.460709714313104,9.438755524991642,-0.7869468881929098,-0.6641933031584926,-0.25870257160564725,-0.5018402621730822,-0.4682298613577861,0.13920303265866626,1.2476792287995147,-0.13876838546989428,1,0.125,0
7.356999999999999,3.7642228963749624,2.6955867510945652,3.6229899751769796,5.364359797569893,9.255919878959737,12.444355350173039,15.19597929716805,5.583022664531197,-1.6847438585105015,-1.3585716981705567,-1.0891380531701125,-1.6001944951714624,-1.4565324656502436,-1.0346830333838204,-0.46203652695315967,-1.1858663565659804,0,0.0,0
7.457,3.3258579422204475,2.282929729197879,2.672960824288119,2.6377678048453026,3.7326905975586726,6.193548919700077,5.0825105648141085,2.76884140875099,-1.8219514288022327,-1.5314546820001316,-1.3543405428955047,-2.292539276409564,-2.544494413429553,-1.742870118109161,-1.3590885597056626,-1.7180638676275006,0,0.0,0
7.557,3.0978008303445814,1.9329504843845948,2.280250770867152,2.8010554693857728,3.2424916971835267,5.239515552472386,3.523660905838122,2.5579495832306876,-1.941236189895853,-1.7225572704753198,-1.5166996255450893,-2.242276202755692,-2.6080630780618983,-1.8787733608710586,-1.5390104002606453,-1.7774896435206913,0,0.0,0
7.657,1.7795357879804663,1.2469554826041631,1.2834829398058225,2.637532305230531,3.688628100162445,3.951616309917012,2.2461497186308845,1.7579902931001161,-2.419604493749841,-2.0195199270223854,-1.8665798303393326,-2.3197405525649364,-2.501899381034758,-2.0571146124432746,-1.695999317902059,-1.9690383327781575,0,0.0,0
7.757,1.4165580863770244,0.9662488220140516,0.7748320180142098,1.5043711945222038,3.8285790570722606,3.584604305485609,2.01488745425485,1.5966313793148093,-2.5087508479612897,-2.126973874847465,-1.977874528171909,-2.6584275987691135,-2.466210703733595,-2.1042149479926775,-1.7111583008141094,-1.994239227810814,0,0.0,0
7.856999999999999,1.359610318901805,0.7073019950329265,0.8030131287788637,0.9193342933079944,3.320202588396632,3.29547025611594,1.9249043304931754,1.4044189909931,-2.5432633376427827,-2.2791265612992566,-1.9649977466653532,-2.7975166333967487,-2.5886408509121948,-2.1496864817215866,-1.7285848243471638,-2.0628697300674395,0,0.0,0
7.957,0.9127417737168918,0.4993100333279401,0.8948282291339898,1.090898483303686,2.578649246806314,2.414816819434782,1.2788259652499094,1.1549961347423463,-2.6844605517640647,-2.36163888164013,-1.9400082553495026,-2.7610912078780543,-2.773948064452054,-2.275321151874833,-1.7949161703833258,-2.110446233819279,0,0.0,0
8.056999999999999,0.9280249418340106,0.7843122137527148,0.9480979704970889,1.8580206421059884,4.1236381084096925,3.2325005365335984,1.6117305771541293,1.358926121190028,-2.6727416276170755,-2.226616488576127,-1.919013628007479,-2.547093007137737,-2.5006883894240555,-2.1809055547175586,-1.7568419724240496,-2.0511424703489114,0,0.0,0
8.157,0.8620591826250652,0.7262850652386228,0.7888482123781387,2.719771412259663,6.258473849565062,3.7574676997388683,1.4193958646663218,0.9928520557697358,-2.697251946069612,-2.2513671599972858,-1.969436852214844,-2.278993562491324,-1.9157247371675208,-2.082728983156279,-1.7864104117787452,-2.1538303508054377,0,0.0,0
8.257000000000001,0.6289050362062055,0.5914116315447645,0.9949630557038724,4.0172183773103,8.732726913382992,4.193583527286871,1.1391536436145413,0.6938508469029573,-2.7877970579059665,-2.3041177371814068,-1.9063730744172596,-1.9054023683332684,-1.337915156740805,-2.0277861917411117,-1.8108402096584022,-2.2099464860019413,0,0.0,0
8.357,0.3957674335281739,0.8732979312067473,1.034452922608858,4.237131192046398,9.667770855414357,4.608612094389201,1.4710885133733378,0.8481963704040967,-2.8636693733544596,-2.177064156728819,-1.8948437605357669,-1.8216976255223236,-1.1084018101009383,-1.9622145151386914,-1.7674209339968925,-2.171453494520965,0,0.0,0
8.457,0.4125840439377399,0.8108698580850561,0.7258772976924422,3.233431693015436,7.835534399991057,4.911775404619583,1.510003392874185,0.9745445868413655,-2.859089462212176,-2.2153432908492348,-2.000928822388236,-2.121988732508101,-1.5700079309153747,-1.9245810628495348,-1.763242202587397,-2.1401338520498747,0,0.0,0
8.556999999999999,0.4455276093871063,0.7055025331708207,0.7203938587391008,2.186718372489514,6.561296781879742,5.129752949350954,1.299598660853122,0.9658408865581336,-2.845981533174057,-2.259635100851651,-1.9960835022976426,-2.463555995186727,-1.8197458207028387,-1.8951385226340605,-1.7890513464618618,-2.1432605012263592,0,0.0,0
8.657,0.9370794004622205,0.9514135484372501,1.120330435974029,1.6431709629909776,7.448896721996367,4.102924764538365,1.252598220983983,1.0051197264461387,-2.715328120152167,-2.1384126954655063,-1.8667185437826035,-2.608230551090972,-1.6138425767324898,-2.0469508959212255,-1.7944607687458798,-2.1369152923264076,0,0.0,0
8.757000000000001,1.1846647518723783,0.9862323364163645,1.256642752893438,2.8676760085323836,7.473563467312274,3.4218946201769174,1.4190354532176703,1.1667721440400747,-2.602798926729346,-2.118197611233355,-1.8189103444556785,-2.26253621428964,-1.6178748432273582,-2.137607289921674,-1.7743523877565246,-2.0951525048942328,0,0.0,0
8.857,0.8979266378976284,0.8825952464896194,1.339080597008923,3.541448103341409,7.65996731239986,4.820494730963845,1.5776726772311982,1.6517030074938202,-2.7061935271111617,-2.166845380002081,-1.794553045005081,-2.0241882239100377,-1.6158552883891033,-1.9630430883249015,-1.755338871702056,-1.987341639656682,0,0.0,0
8.957,0.62200026722271,0.773306609621808,1.3262375048472916,2.8584808994788067,6.737269851481723,4.905232189056543,1.7317558027761804,1.8198757606473879,-2.781513502941295,-2.2194433813895764,-1.8016749215087695,-2.2584847751630983,-1.9121352209760256,-1.9370692156489437,-1.736890038741419,-1.94178065503391,0,0.0,0
9.056999999999999,0.5956465273934112,0.6379552689346081,0.9203322487138329,2.2496648618952477,6.053354289439625,3.326212402409522,1.4169166168423717,1.3264544579500517,-2.7902693568238375,-2.285910394169396,-1.9447807905529948,-2.4019509756666713,-2.0029530089191314,-2.155034576038804,-1.7820757515271382,-2.069466159781503,0,0.0,0
9.157,0.7029875519010368,0.9421914350023705,0.7999840722419415,3.100691705974758,10.235898716808714,3.41762148955335,0.9344243667347288,0.9491452096114187,-2.7569051451862547,-2.1683903954364228,-1.9714389363238187,-2.1588995597019096,-1.034516311397147,-2.1506666811985857,-1.8310594870494878,-2.145932826897267,0,0.0,0
9.257000000000001,0.8384647942393619,0.9572792976561316,0.7586059724378805,2.923056794096844,10.284123587011745,3.4914126956565346,1.0629243009352687,0.7879195274833181,-2.704733448348993,-2.1511381482104106,-1.9913084941731949,-2.241745835015409,-1.0578831813362761,-2.132287693605732,-1.8166539466486946,-2.1926777449694512,0,0.0,0
9.357,0.7619846392957651,0.5212449875101012,0.618085657264012,1.9202525065980673,8.035940028407182,4.419910238682191,1.1217431534074733,0.5885735828800789,-2.733324718484364,-2.331044829828267,-2.032830477912734,-2.5113208634350164,-1.523991515567936,-2.0276576598894076,-1.8098548595377602,-2.2340532799812722,0,0.0,0
9.457,0.7385332935803932,0.6151865593706968,1.0438662322201022,2.592352081852579,8.545949289243948,5.863229151084268,1.2184046526775534,0.5752511212777516,-2.741640353491401,-2.298202410368492,-1.8993003640284656,-2.3240571454858783,-1.3765336450840298,-1.8120489695021071,-1.7990825866895637,-2.2378651180127913,0,0.0,0
9.556999999999999,0.7870452831696109,0.7469161661522782,1.3021162917970275,3.0661211670058646,9.527182250895203,5.936771833863575,1.3368729135998554,0.5376658123314376,-2.7226595145540546,-2.225208113595913,-1.7990978729011728,-2.1525764361246513,-1.1777939027941136,-1.8075264817041545,-1.7833480398573145,-2.2483470274139568,0,0.0,0
9.657,0.8703727597776062,0.8229965139887153,1.1077461074685169,2.5390482879283525,10.621626873574805,6.34343340653177,1.1685095644699028,0.6184502980129855,-2.6939791743135557,-2.1906770826990334,-1.879772358552485,-2.33270387970133,-0.9225167560271886,-1.7470593520187712,-1.8056181075142295,-2.2294280775246444,0,0.0,0
9.757000000000001,0.7955058445595945,0.9524341081449523,0.6967725864416631,1.601431135679969,8.019422388699244,5.148855930408847,0.7914099721811971,0.7972756639894343,-2.728923612026388,-2.1351910630782154,-2.0137527448507817,-2.624427520505983,-1.711051945281453,-1.9820374328637183,-1.8529033737603728,-2.186715414622496,0,0.0,0
9.857,0.7321390257354145,1.4073736316512164,0.8464942441462274,1.1039337798099493,3.8703462482083086,1.9588129343953327,0.6521411027209161,0.9833456886505427,-2.7480318663045282,-1.9522262096311642,-1.9657015533696178,-2.7445727339383748,-2.469113940185627,-2.3402867008160304,-1.8652954891788274,-2.1398481854136713,0,0.0,0
9.957,0.7225998753732299,1.3503501428140872,1.1177935692544483,0.8543474490546773,3.2122790356822315,1.626934840694539,0.6165893584988482,0.882099100875676,-2.752306725554013,-1.994005779658675,-1.8587663454090102,-2.8590570942532327,-2.6684793669378415,-2.3799900447397486,-1.872283420032728,-2.1678886125004153,0,0.0,0
10.056999999999999,0.4996044868773828,0.7463611137558269,1.1082932028844361,1.201045002911502,4.114296689096797,2.7315865135037605,0.41832636485281705,0.5409055971833593,-2.826405009829309,-2.236074556835968,-1.8628053572317504,-2.8055922434710654,-2.5446538832354815,-2.26081308718215,-1.8942022328317756,-2.252745493188621,0,0.0,0
10.157,0.5077049541182974,0.9240563709157562,1.0682010966929147,1.7250658634517502,6.691626063269825,4.17543572460395,0.6498944062634804,0.36146166604137553,-2.823347680812776,-2.1602096302843425,-1.877297290253567,-2.592723126363242,-1.8643439727018893,-2.036034219761033,-1.8697188374617366,-2.2940132728792286,0,0.0,0
10.257000000000001,0.6460476485455023,0.9008265471677667,0.9287485097055674,1.4517179522326498,5.935757584194521,3.853405140767309,0.8101549524453344,0.421154073812734,-2.7741858273225195,-2.172207292043004,-1.9285064134299934,-2.6684062978924628,-2.0776075746801776,-2.0856252308215253,-1.8455098049468064,-2.278067795431643,0,0.0,0
10.357,0.8119065823464655,0.5608567146587148,0.6078381824550271,1.1363320378965596,3.155690702221953,2.4542097809748,0.8357416175772759,0.4200715798128038,-2.7145224998813053,-2.308336087852138,-2.033125364512075,-2.736031243945484,-2.6290603237945622,-2.2676887502261502,-1.8424013765349165,-2.2767264886628906,0,0.0,0
10.457,0.9567072346398896,0.6091237869362919,0.48139154859836375,1.334709731385698,3.388009362120745,2.0605308887885547,0.877702110329948,0.4187431976398866,-2.661670499230916,-2.287737721054578,-2.0676614676936547,-2.6735485621963693,-2.57805975636069,-2.320852830085386,-1.837183252341935,-2.278653519807839,0,0.0,0
10.556999999999999,1.0259852808484822,0.6414212493790264,0.8940177804993535,1.3546905934870592,4.131868219594877,2.529079786799421,0.7747305168619019,0.709987411043132,-2.635211542015644,-2.272936500399886,-1.9507344933381934,-2.6673959262557227,-2.399239473669607,-2.2601194640626225,-1.8504315245666139,-2.212382979108029,0,0.0,0
10.657,0.87281537082266,0.5988513707162926,0.9727880879719846,1.206987967735147,4.283587527851992,2.511989028959582,0.7157308750731568,0.90611945575194,-2.702506715458967,-2.2916895328938156,-1.9141030252643823,-2.7145487489386446,-2.3640978635197065,-2.267798604404963,-1.8570618739325344,-2.156045402839647,0,0.0,0
10.757000000000001,0.5132777530495845,0.6979284433691458,0.9420438921332378,0.9508039981932631,3.221260626164228,1.522689337966362,0.7604377695947271,0.9205199958534415,-2.840644852015748,-2.2478586452438294,-1.9238182405210549,-2.7972329964374407,-2.66446101573354,-2.411467436861509,-1.8521345763464976,-2.153781558642281,0,0.0,0
10.857,0.55364201435705,0.6438834623159239,0.8206136924493762,1.0318050026487702,2.168495826971682,2.3504155376503,1.2981213809404029,1.123802799293646,-2.8315598916439573,-2.2786092830491853,-1.9843607835425723,-2.774654654943355,-2.876328000234229,-2.329311244803014,-1.8005746272172984,-2.1082983439324883,0,0.0,0
10.957,0.9664198750448164,0.8218209420263558,0.7721756025539223,1.4107626689848778,3.5408651152359494,3.166628066776943,1.9247699841191592,1.28917286998959,-2.6723961354621664,-2.2209597761126774,-2.001453179069658,-2.653524735088303,-2.579334570145588,-2.1863529015054626,-1.7169256727098585,-2.062181764306229,0,0.0,0
11.056999999999999,1.2941088759489783,1.3002707319636637,1.3870083984409247,1.4958043350051968,3.7505378742354223,2.5041555666879645,2.474841071835722,1.3097012501137557,-2.5491904101535763,-1.9869844946302329,-1.7904809057508184,-2.630375141402438,-2.508966741734352,-2.2908751621582115,-1.6503226840391136,-2.0576433007462045,0,0.0,0
11.157,1.8811367729986863,1.273601909279086,1.4732279410437519,1.1736779392502903,2.5589158033506,2.6663152881083008,3.237336818460321,1.6116680653101236,-2.350902576584887,-2.0015811682282267,-1.7485844593970399,-2.7438541505655927,-2.7923109978494662,-2.262986398037359,-1.5623881028965414,-1.9906720140747478,0,0.0,0
11.257000000000001,2.530698513794648,1.6663846898722703,1.8552351782560317,2.4183910665316204,5.6127156602718795,5.844145655097588,5.308841002382313,2.277753247594529,-2.105597038371988,-1.8968618711367717,-1.6579198537008275,-2.486239986104457,-2.2642017456896384,-1.855473070062105,-1.3438670094002199,-1.8339342595667394,0,0.0,0
11.357,3.1970208655638777,2.486000444579882,2.7809899168161736,3.9972804658643293,8.406692812060596,9.640455556931682,7.846219296458997,3.209640410110061,-1.8710193104141428,-1.497826429391584,-1.3407683167545055,-1.9212532907095656,-1.4388310112306086,-1.2901753481529348,-1.0280423679175674,-1.6054091276763778,0,0.0,0
11.457,6.526142360830105,5.72982328767019,6.920383917026752,6.67716092398297,11.505886392917871,13.51749536170645,14.176433125610586,7.353878052296083,-0.9866637259020672,-0.47010082392412145,-0.3534399652580828,-1.2489469931379145,-0.8107508953647663,-0.7657737047250397,-0.4092490044063214,-0.863762120996458,0,0.0,0
11.556999999999999,12.198827267191405,12.092612042323504,15.138101553568472,12.861373556222645,18.708688006051098,18.762456551463902,21.98709349423486,15.470341957443193,1.0384241038162059,2.3563280624451517,2.264388134000325,0.5083769972887375,0.813232380068466,-0.0743188853431632,0.5178570995985818,1.0704554458026099,4,0.5,1
11.657,12.19483488144088,13.591607801771772,18.24191632558141,15.91480717932043,19.397960705776917,24.393960496013754,23.480472297298235,17.499206386590988,1.1721407544287734,3.511494413411442,3.6997636422147737,1.7200464546650092,1.1390066802100542,0.7216179825506518,0.6701235786493903,1.8246250858553719,6,0.75,1
11.757000000000001,10.346681864735409,10.078001841923363,14.437020727256424,13.67567367916684,13.040019263597324,28.899066592340915,35.33968236097083,19.015681511595233,0.6505536398621272,1.8784698570045246,2.3136785174084222,0.9873962970841541,-0.3680129763687176,1.392802631880857,1.8892539311661516,2.1569372577057413,5,0.625,1
11.857,12.984900959437864,8.839508518822173,11.494521552455153,15.269622939686952,16.13908817725671,31.232092856948217,41.366837402175655,23.32270119731954,1.649889916970734,1.339606338222364,1.41749205977687,1.3690037084887297,0.15150717744124037,1.7861161395128264,2.9402912582726435,3.3117511144580867,6,0.75,1
11.957,12.242620782512551,8.30487710931277,12.5214367449153,16.24368746057423,21.9165175909232,30.45303868147786,31.988091546434582,20.251763091115233,1.3134871586396493,1.0838747975047973,1.808887592846509,1.7250122041071865,1.7410885762537074,1.6594480203954354,1.76594538775466,2.320640173002727,7,0.875,1
12.056999999999999,11.034257987225981,7.0182986545705575,12.51371642524553,13.826605894884423,23.088784644523745,30.485876073403293,34.31014442062805,17.094727570680888,0.8795444409902519,0.5455324060439323,1.8361592105098796,1.0535548980679101,2.1155489624528214,1.62602449122132,1.94498393825264,1.577425000129624,5,0.625,1
12.157,13.152975858656758,7.072837455524986,11.292245653736716,12.926096190616239,20.229543549544186,31.099415130009564,36.8955479076218,21.135435954195067,1.6379739570873948,0.6045299569542302,1.4249611940760256,0.763474371667586,1.3761427785639069,1.7132693301635218,2.284961405468729,2.660957904411542,6,0.75,1
12.257000000000001,12.479198988211387,10.214229133799007,11.29349220362363,11.238296818507475,17.5071133462645,28.159372304375918,26.193436195300322,19.00441167144923,1.3934479213559412,1.843802996099646,1.430121292205286,0.265383172354947,0.7648433421650374,1.3286112625841418,0.989387249914666,2.0950991099460725,6,0.75,1
12.357,11.698510610710924,12.748826089407238,9.721802634029714,8.546572200118451,15.094859757246592,34.85734020913232,29.660117834567103,14.95085888862939,1.1562774653253411,3.1190398240558403,0.8147361196059164,-0.6067693329576133,0.13856840650265834,2.114940311073217,1.268305791888918,1.2590218844875785,4,0.5,1
12.457,10.108084193627814,9.949424014441451,5.789758415460663,5.683785666906522,12.653102737464097,42.76333268390421,45.59146970872774,14.242830435656199,0.360628468132638,1.5101872676294816,-0.41988765336523315,-1.3872043014187694,-0.38004974431471344,3.328969977776776,3.2487412622741445,1.0425650401849913,3,0.375,0
12.556999999999999,6.912378830023194,6.378052764735017,6.518448512827913,8.242407241160459,16.47689059423169,36.100286232809474,39.61759164103123,10.212444614898875,-0.5765954095838502,0.1988289752402354,-0.25485701837571906,-0.7408178569497557,0.46661641505712587,2.266602991564345,2.2557356486894222,0.04550821164849875,2,0.25,0
12.657,7.877309585041893,7.813448147033835,9.167513520567237,10.289811327153204,15.415173125279452,21.273032871638367,17.927874343926423,9.689569217161772,-0.19069360357658113,0.922875592855673,0.6803228812529516,-0.016607954665747066,0.13357297359475534,0.19540650750033955,0.09706334172059694,-0.05857931974669913,0,0.0,0
12.757000000000001,9.03702957986181,7.6131182602200775,8.585450511617761,8.330469491372519,9.932110444809215,16.88667070702429,15.125798668393996,12.889939436449446,0.20991560651485353,0.849837831219531,0.5087222460717366,-0.675826103373451,-1.0328807997873186,-0.2813512518485916,-0.16595494386318024,0.730088981441454,0,0.0,0
12.857,8.519563867493813,5.725721503617015,6.446354955060834,7.892762342533586,13.038388804476572,24.364565090907636,20.641973107558602,14.544610986910651,-0.005351924203496972,-0.03960397487910957,-0.15387910727053883,-0.7637019865509036,-0.3917873810140493,0.7591606793698652,0.3924345179063322,1.1744766908033015,0,0.0,0
12.957,5.69198176803648,4.007091453203101,4.667211074359734,8.453117257469607,14.09581902224931,24.49089780722354,24.22866319041665,11.869978907765729,-1.0105976384847826,-0.7773902656468008,-0.8430997829445224,-0.5542850781289117,-0.061604905433589804,0.7926955790698442,0.8653222811092117,0.4009748795334108,0,0.0,0
13.056999999999999,4.219954073046137,3.245845338888932,4.070375069282381,7.154363748570804,10.57581198070326,21.68397761851628,18.988474365360286,7.815720931253026,-1.4991051427146842,-1.1107231062922416,-0.9848041311046767,-0.9347274059407912,-0.8927439933392559,0.411654461363615,0.18635816522609036,-0.47808798825248927,0,0.0,0
13.157,3.8660116407685177,3.0369413712526416,6.24760031328915,5.509985710004167,9.413954289309599,33.36710136181875,20.605285995538228,7.546782458873322,-1.6251552806644547,-1.205926300000664,-0.23233910466005367,-1.5220167126737043,-1.1545137624103021,1.8927566418775137,0.3728595659889378,-0.5461104319421167,1,0.125,0
13.257000000000001,4.3675073173961865,3.4500505973944606,6.87372735650484,5.359080975190097,11.999156915486637,36.87549760029652,23.560776394255186,6.401282071045642,-1.4519242341921879,-1.0168256255201975,0.01361660289677702,-1.5562093053524768,-0.5746442312840427,2.389081843137677,0.8064045697264154,-0.8713312976921269,1,0.125,0
13.357,5.723031453473643,3.6862234497662243,5.914522124113487,6.1484798411343755,11.216554869405433,23.537388199880137,19.1182083163728,5.711244765214539,-0.9607222750234424,-0.8942548635655241,-0.3097061260261885,-1.2531188045049357,-0.8260298753651633,0.0918870089574011,0.2833371172876835,-1.0423684112495188,0,0.0,0
13.457,5.8269642474726275,3.674909296267416,5.32770191923899,5.43719893893694,7.6791728523966745,13.442945485884225,17.98497187820738,8.369560847362687,-0.931756590072645,-0.9048312789821995,-0.4928887981830995,-1.4523831486646293,-1.5637697513723856,-0.8247813681013014,0.18111195042597159,-0.4153072834981536,0,0.0,0
13.556999999999999,5.444255784288272,3.7141981841280662,4.819688308314613,4.560736833128075,7.150385863778926,20.47021621128958,21.73514884131877,10.145431195006498,-1.1330535758517684,-0.9428281968785452,-0.6848330595194123,-1.7679828374369415,-1.699640667744346,0.22623235534722824,0.5917508014456372,0.07443506773363272,0,0.0,0
13.657,10.247720208517505,7.580087299653781,8.283072477105652,9.024495256226523,16.48697392998853,35.048407766930275,22.062128568352808,14.30986869827319,0.3390494233494867,0.45910820624313137,0.18727472271115234,-0.7577967465660743,-0.007426968855580807,2.083412428513392,0.628000883163937,0.9843775612111976,1,0.125,0
13.757000000000001,10.652162386134947,9.258484643450327,11.632154590398187,13.616835197103503,21.86199478036516,38.73442340808618,27.001232233442977,13.825666064389292,0.6115662865958824,1.5791636556279793,1.526214326041953,0.9483335009868877,1.7635844363763369,2.726893243622828,1.137806626247166,0.8181917268487983,5,0.625,1
13.857,6.775136767813264,7.4727864241793345,12.191779789472559,15.300436486302553,19.026589401562372,27.478675176292928,29.68972145568483,10.185730970835136,-0.610663213871229,0.7757084444762093,1.7371736490689524,1.4003307787721195,0.9879456892446777,1.0481190290169846,1.515683037995529,0.07326790798127972,3,0.375,0
13.957,5.778919412297567,5.986797696488157,11.01653396742346,12.147132248298522,12.752983994327337,17.374345285166314,23.03408944956942,10.13099499408586,-0.9836060225673364,0.12227941099658639,1.335672281502467,0.20366337151871572,-0.728694518850436,-0.3720678870561943,0.711842744309853,0.0649709413582005,0,0.0,0
14.056999999999999,8.888413943853532,6.5174249036311505,9.42611017972556,9.584915603299475,13.756525290220013,27.573935731909398,24.219752028284475,12.48626906792079,-0.08301746852827518,0.3413850801140265,0.8360059740642602,-0.3188841179622906,-0.42866603449935,0.8186475422947126,0.8303160328796679,0.5493072308441204,1,0.125,0
14.157,8.872419053453191,5.639892735378936,6.901099043771604,8.733201680836997,14.12292052591029,28.34094248723954,20.69007565063268,11.436824645273543,-0.13294773095705797,-0.3129263174865081,-0.20473667516844646,-0.7791958046975498,-0.2577462006143905,1.031332742319327,0.09224100376762175,0.016738678334233103,1,0.125,0
14.257000000000001,3.6834598005523036,2.202792525498328,2.7542654905016706,3.3718769783931815,6.670459301319339,12.207128515508261,5.563298845983339,3.9119454989972526,-1.866022820244169,-1.7081485405440326,-1.4559108886374559,-2.137123439179612,-1.9888788935450314,-1.1789415056204373,-1.363181346250514,-1.6513874509739477,0,0.0,0
14.357,1.5037298481775088,0.9958562030032304,1.1258114375991883,2.055473863215614,3.624863452932074,4.605801202122069,2.8544232063506536,1.3829049842698344,-2.4971644997994544,-2.134177536080596,-1.8811354318251141,-2.5013340403887474,-2.519487484170127,-1.971616428641335,-1.610553134852474,-2.049209069516057,0,0.0,0
14.457,1.0831250776198307,0.6898558588962906,1.005811554279834,1.2585959278886072,3.646481930817284,3.102499574231423,2.7696149995693307,1.1019425512528276,-2.6226371289600943,-2.250209198072704,-1.9044014303354224,-2.73041344965261,-2.5153325750938222,-2.2262652102168268,-1.6185040019626755,-2.1113320181851005,0,0.0,0
14.556999999999999,0.9136409063219442,0.719383567414411,1.1655258668687452,1.578274486154793,3.79415400907109,1.6027504374601818,2.5590950287117336,1.1696504916937125,-2.7088743406473768,-2.2347992497614566,-1.8503973165501795,-2.6384003920690504,-2.4898783273738103,-2.3857020246942744,-1.6596891308930868,-2.0936384059670465,0,0.0,0
14.657,0.7413907157371377,0.706536181022775,0.8480408969894564,1.4939873344604189,3.478791862954171,1.9564215352354344,1.2354918538500053,1.0406284800970989,-2.754743622734759,-2.2407725250309327,-1.992197539226376,-2.6557356745044602,-2.577388625530915,-2.33743017047883,-1.8239820920652576,-2.13429787982931,0,0.0,0
14.757000000000001,0.8414686376353885,0.8035352578431916,0.37938030799133954,0.9979447937219651,2.546353313929496,3.1280063855450635,0.3701160105124654,0.714377211416761,-2.707571946625804,-2.1990423416222216,-2.1027763584360337,-2.774060143623355,-2.7707220231304417,-2.189518128552489,-1.8979687756463914,-2.204507218196282,0,0.0,0
14.857,0.771104198022185,0.9174767087778982,0.7165471354682612,0.839971656178704,1.880061646588888,3.066667800111187,0.3647689345974447,0.6704776631142493,-2.7293769862928197,-2.144997831093778,-2.0037210204152514,-2.837997010314928,-2.9766964364458155,-2.2053761802063496,-1.8985499248217217,-2.2138458471155595,0,0.0,0
14.957,0.7640869280825053,0.7663786625547121,0.8460303132530012,0.5332425992561012,1.6269505032488756,1.5244873711316962,0.5705055323133955,0.6708306643295777,-2.730468112005021,-2.235616852170561,-1.9489484804509085,-2.927554592448093,-3.032665692400216,-2.4111630009894016,-1.8768670183757532,-2.2142721951390114,0,0.0,0
15.056999999999999,0.700022086665093,0.5375149376728714,0.9828408045584404,1.0654176287387056,3.1828644886251296,1.3640223837349312,0.7937369072914408,0.8542942898399225,-2.754561351038962,-2.3321840507164078,-1.91028412213393,-2.794146429183473,-2.6637162991261643,-2.4254375783106665,-1.8490284105698411,-2.1721292366624683,0,0.0,0
15.157,0.6137552700721123,0.5814534425758092,0.9796863461796829,1.300852019190432,3.599780904958258,1.6486523925957388,0.7509739189049432,0.7958559880141648,-2.7870116492409016,-2.306383510927594,-1.9120192982513184,-2.6888447790565357,-2.542741242731746,-2.3829781458719514,-1.855142220489763,-2.194763493024694,0,0.0,0
15.257000000000001,0.5602293377982926,0.5050596664967476,0.6906061449133983,0.9996072994233611,2.6812726557022946,1.730867176531905,0.8583495006246171,0.5493781405625106,-2.802933425144503,-2.341401927583289,-1.9999389827581109,-2.7848458986991917,-2.7830414150070735,-2.38014576634668,-1.8485969620948488,-2.2513363438944483,0,0.0,0
15.357,0.581725593893155,0.5854224248730416,0.8204436833948019,1.2321115281103026,2.8905476690669394,2.4590259250187754,1.2392881265115598,0.8251137981745732,-2.7954551937125554,-2.3106562558743065,-1.962822400990073,-2.7246204912376455,-2.72805894240647,-2.2848334348169543,-1.8007725444457265,-2.188481166768441,0,0.0,0
15.457,0.46635704384148224,0.6435978035645482,1.043444979376295,1.5273122899412572,2.810737613816224,2.2625178607873155,1.3979008875937882,0.8636136518753073,-2.8442510732802377,-2.280300953220382,-1.8827835520576728,-2.6147793715511645,-2.746417438295893,-2.317860023261443,-1.7774288859149845,-2.1719810552455514,0,0.0,0
15.556999999999999,0.38992804075376214,0.4481533434700324,1.1592479756912766,1.4274872034046049,3.1035113970699064,1.3318399699152645,1.3888419098285794,0.7662144082459555,-2.870259407039999,-2.367724833891221,-1.844839785954321,-2.6477231405746595,-2.6898114883031625,-2.4229512795313313,-1.7776594493733686,-2.194162554896131,0,0.0,0
15.657,0.5573086587227337,0.38069222630773153,1.0432374953919037,1.793665557913739,3.4501045940321466,1.5508386803144483,1.116092065856233,1.0439700441954702,-2.811036088692078,-2.3895859068862086,-1.8897735883169116,-2.5512641615556193,-2.5712486451388727,-2.3913562950251412,-1.814444032089743,-2.1275984814246707,0,0.0,0
15.757000000000001,0.7022278546599646,0.7530709228611308,0.961589814705258,1.7266517432630932,2.8678622676060996,2.1203075042394617,0.9682778831870626,1.080631478025633,-2.7542265698520882,-2.2512287698364837,-1.9136995243795796,-2.5793561534566956,-2.701371602537806,-2.3208928315432553,-1.8289364412449352,-2.1160689559592263,0,0.0,0
15.857,0.6134914939003967,1.1666231374684666,1.137918666234837,1.405708877566822,4.656554330015085,3.743136286502275,1.2398324953891788,0.9404213109733183,-2.7959793137261264,-2.0428192086959553,-1.8527079258738084,-2.6599262219870363,-2.332601480527622,-2.1098942900103475,-1.795132987143375,-2.1495803512099525,0,0.0,0
15.957,0.657065568298074,1.1922159652611108,1.1415547750778154,1.8814259877906998,5.360809194423933,3.741362804293527,1.1939785738633721,0.7272804741614973,-2.7855329243203646,-2.025815563233495,-1.8510069212563267,-2.514314185004622,-2.1143314460016254,-2.109050377579495,-1.8010492095459885,-2.212393494029645,0,0.0,0
16.057000000000002,0.9014664778900788,0.9614337364122666,0.8850674771690302,1.7049348285124448,3.651322335071461,1.9953740834058,0.8990507641614448,0.45141343525870153,-2.6844051438774583,-2.1290565134507107,-1.944813235355923,-2.5847843178417316,-2.585519645810412,-2.345226078990379,-1.8369918524934856,-2.267674588851235,0,0.0,0
16.157,0.9918934067243143,0.7883147228190168,0.9277341186616429,1.4283330651368227,4.377327480445304,1.6345675230773933,0.5459807738532857,0.44182080658038186,-2.6482479325303068,-2.2074878263949342,-1.9373742505393703,-2.655321354692791,-2.458910503182488,-2.387034925632803,-1.8877982013228294,-2.269648701646465,0,0.0,0
16.256999999999998,0.8852774141814598,0.6819303100384404,1.0850354372970148,1.4203747209976079,5.319556306244285,2.56059776305543,0.47814126432153276,0.5762553470688355,-2.6936434730571532,-2.254086522198845,-1.8782721915123335,-2.659002158464311,-2.130848859808949,-2.262009673858734,-1.894839336480422,-2.243008497469625,0,0.0,0
16.357,0.6240662299069617,0.5883199556179567,0.9513936452984124,1.1623287714456394,5.519224453114712,3.581190932069237,0.9764906522542313,0.7327008581182776,-2.7882680048223945,-2.2989423060132235,-1.9210018225897378,-2.727870277727455,-2.0799850049070057,-2.1100099726366133,-1.8327983554575447,-2.200911793525273,0,0.0,0
16.457,0.5044255639791093,0.48214031926986206,0.8292989225587452,1.1564534182337907,5.121818803792192,3.246017269248937,1.0379374384315199,0.692070683864742,-2.825882052029752,-2.344470486912198,-1.9625868987734005,-2.726428187867445,-2.205455403723867,-2.1712054750945926,-1.8222578584793154,-2.2105957231410707,0,0.0,0
16.557000000000002,0.7002881318425,0.5575156936422725,0.6278171506001581,1.1554473704063812,3.3130310511120182,2.756861990643618,0.7173259864006215,0.701603980582823,-2.7614360439545598,-2.3228285525679624,-2.0350864656959597,-2.733279277151125,-2.604194114387312,-2.227425236656984,-1.8589154517749418,-2.2076692537928215,0,0.0,0
16.657,0.6911846098148003,0.7595476364813044,1.036112639255789,1.4556831159136392,2.878889444155781,2.845454007407367,0.6120359447452496,0.7302094919833253,-2.7640456714107113,-2.2363913880284,-1.9280922003317873,-2.6497713712743094,-2.692438639808015,-2.2121685096268013,-1.8687288327839575,-2.1993886473128312,0,0.0,0
16.756999999999998,0.5648268267596482,0.7416798832089574,1.23134095713742,1.4771307531687117,3.1940620709784375,2.5703951525331603,0.5370882831189299,0.7656410376986962,-2.8036545824977703,-2.236698038079235,-1.8340023254143472,-2.640524085557009,-2.622216502349764,-2.248344639084443,-1.879129700707417,-2.1913341682840106,0,0.0,0
16.857,0.6154096501876032,0.7181867326549782,0.7890823178968585,1.0475462568972422,3.214837245474964,2.336901677057585,0.7265938944768966,0.8309837858904009,-2.7837275412212255,-2.240458434309507,-1.9950783682035709,-2.776632764006845,-2.6150052822867416,-2.28720267663719,-1.8644142428312516,-2.17415943007224,0,0.0,0
16.957,0.6345598682395414,0.777282225895576,0.4157287604526983,1.0930810462963378,2.792683612674139,1.48507630324298,1.147888198290887,1.01107270051032,-2.7760703919605274,-2.209379101062448,-2.0866931233152903,-2.7604223991651766,-2.711886244647685,-2.4170646335257926,-1.8110787184457742,-2.134894120614949,0,0.0,0
17.057000000000002,0.6393385083634734,0.7688709402594068,0.4427932441490582,1.2079540627925636,3.048019526142954,1.7147231803809104,1.1275835869345217,1.0637294565392434,-2.7750712664217505,-2.2129839281219637,-2.0774529482274415,-2.7121555167249984,-2.65663972131905,-2.3911116688761607,-1.8105967298278407,-2.1203152868208535,0,0.0,0
17.157,0.7428032750248765,0.8316117812594531,0.5849622077251443,1.0538642367921456,4.475073183978144,2.1572075225069813,0.7852692029934587,0.9076410548630781,-2.7410538649569878,-2.183955658105046,-2.035712342681017,-2.7571504283005606,-2.344710471905389,-2.307110700978152,-1.8490332787803865,-2.1562444680927237,0,0.0,0
17.256999999999998,1.0843861473221974,0.691946765620847,0.6164257864055235,0.9233015605741263,5.128267521814492,1.537014627160976,0.5789346633177823,1.0242475373124265,-2.622262532132585,-2.2612797289089506,-2.023636540344903,-2.802517691743033,-2.1799392942345728,-2.418460764767784,-1.8754006059838741,-2.1299504074094355,0,0.0,0
17.357,1.1507436223008334,0.575006653643666,0.7466129957651676,0.6357593144674949,3.651912788233685,0.6221895063423466,0.47517467148978393,1.0827244184640032,-2.593633272521702,-2.311672284098232,-1.9920031075612272,-2.90195744717255,-2.627137159673873,-2.528591107382692,-1.8917524317244065,-2.1150019574603647,0,0.0,0
17.457,0.9721044588571162,0.8597240839804838,1.015767033140608,0.6754772360172454,3.3179230258282932,1.413356385209371,1.1889049447645088,1.1377274905572894,-2.656517577159229,-2.1874137250328043,-1.9002676430619636,-2.9034673878897905,-2.7083826220545406,-2.4494819465528614,-1.8231765835212042,-2.1065651850297,0,0.0,0
17.557000000000002,1.006755454624719,0.8263228454504823,0.9122078896744793,1.6115193568243413,5.768029133224433,3.066059272913152,1.4985554756025152,1.3220422146615407,-2.6464135589203623,-2.204997438110172,-1.9377536414159473,-2.6402608813004917,-2.069911465226341,-2.2108157782863684,-1.7658176392735592,-2.0625305872876067,0,0.0,0
17.657,0.9622908661696477,0.5335327885265991,0.6216683748713848,1.995513571977865,6.14640399661027,3.672915586867606,1.1359866781167818,1.0943774800681267,-2.6643308836110373,-2.331406392571477,-2.0203444249240388,-2.4776379404417703,-1.947894111553202,-2.098951237156138,-1.8124513236247601,-2.127415989096675,0,0.0,0
17.756999999999998,0.7134907052340119,0.840136489596375,0.4993684626593767,1.5188949511625525,4.31069468609293,2.9755564237121863,0.8047247697544863,0.7213629680728884,-2.7551727358632316,-2.214793856087392,-2.0627659653579262,-2.6415089069048587,-2.4158652520729027,-2.2013991898516787,-1.847186575988443,-2.2016398109363564,0,0.0,0
17.857,0.4519273348805375,0.8107948478123298,0.45284983390782063,0.9604881098113829,2.469882827236,2.0741346297514003,0.7934854438600002,0.679217712685754,-2.851315981169137,-2.2339587173373525,-2.077035369772316,-2.7893750196564464,-2.80173982886821,-2.320768929203532,-1.8477683094915396,-2.2134976116531386,0,0.0,0
17.957,0.3928835295761382,0.44958658121888945,0.5423146124990813,0.7415145578423259,2.6350244287722506,1.9302622078859406,0.8478449265910298,0.4862112030527423,-2.87325628934249,-2.363634239750186,-2.046680735524467,-2.8643390649641445,-2.7759539609788404,-2.339029294610445,-1.8421793051879203,-2.265019320914767,0,0.0,0
18.057000000000002,0.7587769165910742,0.7008557837017729,0.5863079220457934,0.5447281984934561,2.7391670668577377,2.031585893138898,1.2913984927911188,0.5065249247137663,-2.7526500362928514,-2.2586557938930016,-2.0312356228235844,-2.9191022789337735,-2.759207608554446,-2.32355321967026,-1.79519435373416,-2.260642972534739,0,0.0,0
18.157,1.0210472522278937,0.9724298916002901,0.6921226455389365,0.8946607914837812,2.290163473149102,2.1797710487800837,1.4367457470708098,0.64269796767099,-2.638451637741671,-2.1303471203996986,-1.999021412919987,-2.824421216252687,-2.8514204705611155,-2.3037817914185363,-1.772369415363076,-2.221122746640884,0,0.0,0
18.256999999999998,0.8977524018378105,0.8528494689414496,0.6918905405827422,0.9414394856360172,2.0524014684388763,2.0135036202201633,1.1433531815003721,0.6194448826626238,-2.6899635272528157,-2.1984102099444542,-1.9992512274922056,-2.8038748509464924,-2.9051463283017185,-2.3390812157071528,-1.8065867900917538,-2.2262697452126408,0,0.0,0
18.357,0.7638336838700845,0.6939837555387653,0.48312341346065374,0.6513813717419039,1.6829612185076464,1.3059585485247467,0.8774139429371404,0.5476050291760246,-2.734219659400755,-2.2539328486533776,-2.069808343358417,-2.881686215914792,-2.987839791905274,-2.435819902830108,-1.839527833181108,-2.244120725126278,0,0.0,0
18.457,0.8822642026434852,0.6875799033350156,0.4659204605040575,0.751803392352649,2.5831898238282047,1.1576383415210985,0.6749614760041049,0.5585760360310528,-2.6939150887214445,-2.256403851286809,-2.0744332275392585,-2.8546640224396898,-2.79412433570584,-2.447973581391806,-1.8624585411789656,-2.2418919220863183,0,0.0,0
18.557000000000002,0.7741125627595016,0.7073309503699406,0.578979157779204,1.340616814050827,3.8808885003079845,1.6130284312213778,0.8045081726692088,0.9107383494064142,-2.737358399357457,-2.2501184925670787,-2.0337516560735813,-2.6951121568402368,-2.4786858874273916,-2.391468016117416,-1.8480284927786084,-2.1652715251842247,0,0.0,0
18.657,0.7183195151212416,0.828181713540029,0.8373503265776558,1.837288178496875,5.538786026641228,2.230321519053667,0.9019499125592569,0.9606048282404904,-2.750652072233777,-2.1883638749313725,-1.959849831805299,-2.525327854722762,-2.1060435720620303,-2.3027917442100354,-1.8350008242515479,-2.149588371245425,0,0.0,0
18.756999999999998,0.7589301112299561,0.7813240928255002,1.2673344231322878,1.504128665242656,4.762207740745192,2.0397013022247217,0.6828386433350953,0.6428276360336136,-2.7333262350110856,-2.2088179049114403,-1.8177130694168415,-2.675421671173113,-2.41874286473623,-2.3332906255694623,-1.8645171511297118,-2.224982317705735,0,0.0,0
