t_center,rms_emg1,rms_emg2,rms_emg3,rms_emg4,rms_emg5,rms_emg6,rms_emg7,rms_emg8,mean_z_emg1,mean_z_emg2,mean_z_emg3,mean_z_emg4,mean_z_emg5,mean_z_emg6,mean_z_emg7,mean_z_emg8,channel_count,frac_active,global_active
0.142,0.56613324917603,0.5183882402685699,1.8094355755955147,0.780821139162111,2.299152460605232,0.5556183831325229,1.047523483276444,1.2325575001541056,-0.09654503388226363,0.25976749056913506,9.2322113954688,0.34744367570501944,9.219969904789707,-0.9838416110839259,2.967171707378291,4.409200619539776,4,0.5,1
0.242,0.5938549666399439,0.5114045940374786,1.382869866239225,0.6618332122237657,2.306456255384666,0.4824568330737102,0.873570701638911,1.0796679495891173,0.1795481558547453,0.2345402412456254,4.575595528043177,-0.2539515399704107,9.53508269722913,-1.5696474725337213,1.5725065236644369,3.5905833800588995,3,0.375,0
0.34199999999999997,0.7416872930395303,0.6403395277577342,0.6822408108719974,0.712472640377126,1.399957983831159,0.5708832120816996,0.934299173797599,0.7862614900586165,1.2197993964101657,0.9328870611227101,0.14433311738295043,0.06520270334044913,3.026915503058955,-1.0477946037182329,1.8575092036180707,1.3955264424515312,4,0.5,1
0.442,0.7981377968966179,0.803245421654587,0.8578904529047798,0.8702802902963549,0.6052638118643892,1.0187357995127237,1.1544639824869747,0.5959616062805888,1.6501713850069355,2.3177892784421585,1.70817019506549,0.9194802177924487,-0.588091401842334,3.49387912922361,3.7131815341808605,0.0028650895301825683,5,0.625,1
0.542,0.6111723648528006,0.6305421817756033,0.7364418477788902,0.7723738798901557,0.9510547318579413,1.0255749163617716,0.8310338316809973,0.5965109032118039,0.10065469203065958,0.9424895195068036,0.6466727086648497,0.25743675534380517,1.5397956960430772,3.7085320864376294,1.269018530319067,0.03808651737673602,2,0.25,0
0.642,0.5682470348994012,0.46014523804726587,0.4953356583255628,0.44998624211934957,0.9506360682481199,0.6924460480879868,0.5073042315073029,0.7826134662619889,-0.1253919629852772,-0.03322848474744856,-0.838444002032321,-1.3208998489821948,1.7548050815736211,0.6178759270217556,-0.40456466321069834,1.3979120487070464,2,0.25,0
0.742,0.5910609738845242,0.45244762075187833,0.7341002999817382,0.6808763351278373,0.6637228152498326,0.6192782846725972,0.5545960149193412,0.7739702262059014,0.08646464041936612,-0.18292046142246626,0.8826228385572676,-0.4010564537904978,0.23542238539687696,0.047298918383121405,-0.0678104425890412,1.2803758807908394,0,0.0,0
0.8420000000000001,0.5284026763326684,0.3283746546443386,0.7571661490890319,0.8535474705737036,0.6372023133572522,0.6388696392800673,0.5642863599170486,0.5409984096677216,-0.3580892046115759,-1.163714945375252,1.0540739629295244,0.7791868241502681,0.10093824256354289,0.24859652306862925,-0.0016008312271055133,-0.46174124539590855,0,0.0,0
0.942,0.4504432079825725,0.35565046189463506,0.5329269215634378,0.673704488814814,0.71895984160849,0.6712553065034759,0.4983288552946542,0.6613329364911488,-1.0748448125714625,-0.9249257174175083,-0.6820952724220491,-0.21347770045329492,0.571146370822462,0.5828334134268489,-0.5299484775521445,0.3222560722439064,0,0.0,0
1.042,0.3484458727490098,0.44172963158975415,0.5624895242535984,0.4030691882477802,0.6901955032808653,0.6227824939959119,0.484980265335682,0.8759531365936777,-1.752634216691702,-0.14824787104685405,-0.41484062545930184,-1.6160895350394537,0.3866818337173075,0.06730992249792109,-0.6464572420036239,2.16946217656965,1,0.125,0
1.142,0.545031338218687,0.5336148411716005,0.8011905966784665,0.32190031373514705,0.5324038572598196,0.6160825629534349,0.5730785022882249,0.7502420282525037,-0.3687334251923,0.3951079511898309,1.3732119367606457,-1.965750585827471,-0.5526837481541256,0.004896251917550015,0.014290216560673452,0.8196466830277191,1,0.125,0
1.242,0.6658469636445207,0.7396430840990944,0.6940949616908597,0.48848768717515056,0.5634078970628028,0.6764999266522046,0.7464660717961996,0.4511735872394452,0.7344438789738691,1.8650718253736358,0.05989932636109162,-1.1398624130384554,-0.49326565734565325,0.6357373369997033,1.1420390768378001,-1.436764232882697,0,0.0,0
1.342,0.5440529429496209,0.7465928027155287,0.4778721472805229,0.7023005349415987,0.704726601639054,0.6700889437595651,0.6570702250255402,0.567177556436228,-0.4292365031199024,1.9768454526778911,-1.1417992102724486,0.010429619233436526,0.32546096559825066,0.5708123354844001,0.18309410922793573,-0.4971065090988985,0,0.0,0
1.442,0.43302444217968566,0.5227608711046478,0.544723328665018,0.8174873952762761,0.6155567080855555,0.6230651239717477,0.39393332227854483,0.6659519702393182,-1.2878404560183572,0.294387928452424,-0.43934280480522814,0.6779266571016657,-0.20414142173761202,0.08973564327883765,-1.2502951919644683,0.5887638268125587,0,0.0,0
1.542,0.8100065416911085,0.6065926131505057,0.5094983466808574,0.8321382659639569,0.43980537983011764,0.608979940943504,0.5239234779791566,0.6166808785384678,1.3034420727003564,0.7103573996645155,-0.6908384246351718,0.7723220488081439,-1.055160045870023,-0.043133655894463455,-0.3539056324726847,0.20466703534579606,1,0.125,0
1.642,0.84005972115189,0.9523988921125031,0.6017760097133203,0.7456604450155077,0.4699211947784884,0.5086627381592004,0.8513246742211897,0.6912502073406757,1.6681274013484706,3.3218153838331985,0.015943273165888915,0.2448800419046889,-0.8825430266467988,-1.4119836237205732,1.6938109169271776,0.7188083167660252,2,0.25,0
1.742,0.47974707229175845,1.0849288141883873,0.7025547094540073,0.7242567226984171,0.5512690480077528,0.29564748621666,0.8617425872505668,0.6620470451152058,-0.9326520716454348,4.430354655248008,0.7427634428812268,0.07865443210221566,-0.43055736526229527,-3.5874449712430554,1.7677760481501672,0.4760521619267811,1,0.125,0
1.842,0.5585835764054726,0.8199049028827278,0.7903116464684883,1.0620503307406257,0.8141785330564464,0.36006296296381823,0.9345262713168496,0.5253845155429184,-0.34568036685483555,2.072104271878733,1.3849288826134818,1.7849561670994334,0.9418748265960399,-2.887250890143064,2.164783381612496,-0.5235785888718468,4,0.5,1
1.942,0.6541967851570536,0.5958963351843826,0.751259813033011,1.0873835425902705,1.0393413411546657,0.6389265023441296,0.8970701165533532,0.4590130606031773,0.5077164108366222,0.7757778140161627,1.124328889779584,2.0135856296094605,2.395054682405786,0.008100698974176933,1.7606745327905735,-1.058446351552889,3,0.375,0
2.042,0.5316399636799662,0.841104307446404,0.6415723712337117,0.9147348733852719,0.8642951407156881,0.6690469582948165,0.4283188965032611,0.4789283607877203,-0.44908582129997876,2.552277726563951,0.34717381149489157,1.192946809200805,1.1399295765410442,0.21623243022771285,-1.0270665444601517,-0.8751741897214883,2,0.25,0
2.1420000000000003,0.5666637921266918,0.9542748346512625,0.6672151871982595,0.8728613519559911,0.7040348835978429,0.4404911245164352,0.5213768547456771,0.5014135549985339,-0.13666126942687523,3.3703327481042598,0.5444525591948515,0.9568659449753317,0.36399197619917156,-2.077864546765727,-0.5688934723059499,-0.6754054285743619,2,0.25,0
2.242,0.712988891540953,0.703516828581488,0.6196758313645261,0.6505632040190498,0.7551541542611642,0.44412570794483547,0.8178373531050999,0.43036677126257566,1.0425604832969322,0.9520901478013979,0.12444736057085581,-0.2846880827785797,0.6989255679043437,-1.9603312144198646,1.4863086961641738,-1.217394092822094,1,0.125,0
2.3419999999999996,0.5643977135629703,0.29266077863672824,0.4771265018635925,0.5305688790471681,0.5116985771531258,0.730645364959427,0.711579590591175,0.49339444649523245,-0.5603638400614069,-1.3785959981673868,-0.9779242010077784,-0.8634637751005991,-0.9414571077020316,0.8617094511615425,0.39678189464852365,-0.786782010540474,1,0.125,0
2.442,0.5185015226660751,0.316604679833072,0.585992521906159,0.709258887486971,0.3972405062620978,0.7447176769703462,0.48026402087051756,0.6512693046045058,-0.8522927443772119,-1.1933920848136736,-0.2880508347585824,0.031048375943255845,-1.4261821518546665,1.1335829612917134,-0.8817459960052476,0.44113898657767264,1,0.125,0
2.542,0.6266114497925142,0.2907329643919677,0.6985752537263005,0.6843880009583302,0.558877156568222,0.6561720650710989,0.6484317736092109,0.637163601247044,0.32321020673459777,-1.3906140541613665,0.7358521831721847,-0.16872430045426923,-0.3905685593978347,0.3287296949743067,0.4502695528311298,0.32670125392604316,0,0.0,0
2.6420000000000003,0.613617485499507,0.29560680662610067,0.6435795848896082,0.4150602646616457,0.6143291062782485,0.7081457583305574,0.6420965948991384,0.4529938052770065,0.2901554653773054,-1.2854977283032658,0.33527512715300223,-1.5140574941679321,-0.09148324795273696,0.898479401617017,0.49404358372492324,-1.1326011694186633,1,0.125,0
2.742,0.6206015539000165,0.40264024959487243,0.5412355824481402,0.3629842934801141,0.44258733165097364,0.6003822335279487,0.49444114932818994,0.4623881611830755,0.3613016614971811,-0.45032421984730525,-0.5631968704313809,-1.7355634790031935,-1.608783810212693,-0.26754812580296194,-0.5704605014614007,-1.1797641962789793,0,0.0,0
2.8419999999999996,0.46064347959266044,0.4087897167813865,0.41836804249471876,0.5490728243812003,0.3198848032202602,0.46813737475286216,0.40307307013976457,0.6176152673963752,-1.0328284871633493,-0.39843618456656565,-1.5746596311622645,-0.8690885960676156,-2.1783083537362544,-1.60681459581719,-1.1325387258160835,0.08787377596538977,0,0.0,0
2.942,0.30796855501596465,0.4174943079787927,0.36737565704376984,0.7140386808694892,0.5498872078900013,0.5293632096452057,0.5059618020052187,0.6193687975688713,-2.1234441203062024,-0.366685006999029,-1.8493381845353145,0.08205128301589495,-0.5640624651543147,-1.0151245592017446,-0.4641298767827335,0.2107350309490251,0,0.0,0
3.042,0.5477199347026976,0.52393011376896,0.39397625169047995,0.6146160074704764,0.5452936432850545,0.6204622064442046,0.6803372706102456,0.5974360689027282,-0.5514746932188026,0.39654710883683264,-1.6312120285093754,-0.5233415447277212,-0.5197379665803474,0.02038538108791308,0.7233623433166075,0.06511493311796265,0,0.0,0
3.1420000000000003,0.6425597303275241,0.4505798561439289,0.38608686297896716,0.36576476678434455,0.4063213158818703,0.6251770875945294,0.6028024880591141,0.7538412081868939,0.5145171722612296,-0.35662438650014866,-1.8227660336577056,-1.7544160389379602,-1.2755598681449254,0.07411275895414005,-0.013209832712612436,1.1959271288294098,0,0.0,0
3.242,0.5415655754712475,0.28538449768931784,0.8839740338284442,0.5448808732235563,0.32314988315767657,0.5566418218745546,0.32573191165035176,0.7459377001415035,-0.225029125077653,-1.4959621603907864,1.2510590867426061,-1.0580724382980446,-1.774287756001988,-0.6355392474466057,-1.670298694638508,1.1094224790019964,1,0.125,0
3.3419999999999996,0.5451352239399324,0.659103390952224,1.2648258877510106,0.7564204195614534,0.3181961496950369,0.47231005361307815,0.33621392127016525,0.5298803849358344,-0.1949576407124644,0.7554764993447153,5.148437480486451,0.296523814682775,-1.8122221322458554,-1.5505698109819257,-1.5919535264251787,-0.5270605736115159,1,0.125,0
3.442,0.6211842315368155,0.7898626255251263,1.0768596807288822,0.8913271290086969,0.4870299656711575,0.5612180206868489,0.3562774336341921,0.4521520861345671,0.37667952184853676,2.267153801779515,3.309218368899175,1.0631184818061024,-0.847660606931704,-0.7337344770037724,-1.4567465587770214,-1.048522950656126,2,0.25,0
3.542,0.6147869795679679,0.6141491969150562,0.6470912382419132,1.0219185745751755,0.7622542464855038,0.6519565560367108,0.7670033897930764,0.4037380848764692,0.31175951143405634,1.01145521400054,0.15667066180890615,1.7817992708012564,0.6874369970036491,0.35601809077287916,0.678976022720263,-1.5112770687641461,1,0.125,0
3.6420000000000003,0.5218333103912005,0.853014976578925,0.6559471825701568,0.9051576538204865,0.8785816839803265,0.6408096704354435,0.9155242816667744,0.6546927316070683,-0.3947679119650741,2.4391995585842383,0.33016289346105154,0.9786343918673085,1.4060734885998891,0.18671090238084775,2.137922183361407,-0.05926451351710114,4,0.5,1
3.742,0.6083465494323829,0.9554623219518662,0.6744569178774344,0.7049068988807037,0.6793804210758405,0.669885488474032,0.6314063988826094,1.0045442572750731,0.2055142013886792,3.424204179271945,0.5587344241800171,-0.04851046666273427,0.09322469940938186,0.3317048077119823,0.1733511816164231,3.0422306401457986,2,0.25,0
3.8419999999999996,0.7408155617293886,0.8170527303671771,0.6955795959594216,0.7409215397061788,0.6420956364268969,1.0046092430315694,0.6148517338349487,0.8705804929901123,1.296297202552592,2.523555493807824,0.7094733184128621,0.23017979317159662,-0.022322455226276655,3.3797162711090274,0.1584014121645558,1.6555256632992486,4,0.5,1
3.942,1.533603962437292,1.1938683171389692,0.8753238728948278,1.0748838146421624,1.0477364336168538,2.4757853490998185,1.869740014214172,1.6799555917532742,5.903439463586596,4.789279902241523,2.1342198969408415,1.797033333719654,2.172271458514455,15.713976505784544,6.723814174929814,5.475181681696151,8,1.0,1
4.042,2.6537259000824975,1.8799556366762098,1.1826104767682348,1.5362399695755538,1.7905251744783168,4.357857741525526,3.9201411312515195,2.599334941578484,15.045112727722628,9.780127041256689,4.336097813211706,4.337536909822181,6.280777981697599,35.82625591479181,20.988534871848927,14.254160267664549,8,1.0,1
4.1419999999999995,2.8406116447932277,2.5237199618622297,3.2436317414826528,2.4761671888532457,2.9670093589584514,5.311416772982028,4.764333417240831,2.411696685500043,17.006313081271337,14.654950635200999,17.48143963528859,8.645584766294911,13.127486269657552,47.29764430439043,28.531978404174527,13.294093075887181,8,1.0,1
4.242,1.8727381720234626,2.1810745455274385,4.286741129891844,4.229142889962905,4.031916540336191,5.269605067253238,4.1268151844167855,1.9035033250908242,8.360570745728081,11.00684966699118,28.37559480123024,17.570348795858756,19.575360433608427,46.70162083212103,23.942521280029773,9.909578427923499,8,1.0,1
4.3420000000000005,0.9300115375327226,0.9587652006354462,3.24202178537399,3.8724318835064437,3.3371596109974027,3.8915861108462577,2.7740528946686274,1.4953391905527764,2.6447149862130455,2.43485703857544,18.651812738200398,14.618713495732209,13.581150810770321,28.770180352937228,13.458306795864118,6.001302560934642,8,1.0,1
4.442,1.0169457095666536,0.6347833746617625,1.5121034657387316,1.5307743835983751,1.390704328179693,1.7146850119760493,1.677600695831669,1.2158726629474994,3.3590270526096333,0.9049363759145754,6.6633273226908205,4.00963831414677,4.098377242233937,10.12182482120417,7.254762834713098,4.290480494751761,7,0.875,1
4.542,1.9720275083897125,1.9670351070682373,1.5458085139434226,1.2371879716686736,1.5752306062666053,1.69664769021573,2.414320659350411,2.22693001408748,9.402804708689345,8.837411345187194,6.906468868322975,2.8774358025374895,5.2158621585671066,10.571790728614692,11.98327914779029,11.574025563423982,8,1.0,1
4.6419999999999995,2.243940679075342,2.258569075774934,1.7808066561266183,1.3593129505401609,2.3412335068955725,3.278655685838455,4.428945901832721,2.5993295175116296,12.137415646262601,12.232659318099381,9.166938035621776,3.5340372460941025,9.517886358433934,23.54764903628966,24.72667821147332,15.199109308377476,8,1.0,1
4.742,1.6736871128262534,1.695786491887684,1.819832402051427,2.120230436139272,4.254947888691003,6.885188665430677,5.294067421089105,2.0909101174394613,8.012516623220803,8.654252055224758,9.56752069165002,6.936514632945787,19.514747591416487,57.590363790353855,31.965995280028345,11.155828278806545,8,1.0,1
4.8420000000000005,1.912701655184649,1.8986047742268692,1.7647702081592422,2.6729516639774267,5.284180348488481,8.391560745621074,6.155694425895731,3.3819976469266964,9.831113286888549,10.158833956366902,8.99427044545464,10.397334395636973,26.73108150646393,77.17543960233743,37.18828223750965,18.31511453058665,8,1.0,1
4.942,2.7429464471291234,2.2130296286664084,1.5824285278672108,2.471447486228311,4.273121361273337,7.3698439023165,7.779544465817671,4.953114647657565,16.261655997773595,12.345234144969883,6.990954867189044,9.266860782662693,20.116144411770932,66.0365589308416,48.720706084793235,32.303050156735196,8,1.0,1
5.042,4.250414155885035,4.739658109854884,4.737666534847645,4.194343448747369,6.1834939762039385,12.045720455368132,7.398071937301987,4.819922460575916,27.039240416302874,27.010714015479927,26.285625117837867,16.682516386573944,28.778551495976387,104.84332987993837,45.28344746263163,31.785908859233565,8,1.0,1
5.1419999999999995,4.588275761384814,5.091800969863596,4.946383856701184,4.246718660774014,6.674079238733339,12.86102886284177,5.708425438853101,3.5087617885995237,29.94462691737142,30.489053748020144,29.531144346679326,17.03705742565992,33.31397132142281,118.49390831525378,33.08466113254741,21.42767290574354,8,1.0,1
5.242,3.5270111807506215,3.2313317393680143,2.6135201257687264,3.0712386348690077,6.045602354534072,12.503582309029504,7.924560801701036,3.2907266132970943,21.59326491887378,17.793942699208166,14.20784717625197,11.939574374284401,30.160717626373657,115.54871568471526,46.54063090107306,19.29778211972173,8,1.0,1
5.3420000000000005,4.940259780409852,6.021721173247765,5.545030586031237,6.020434963479985,10.833116179329073,17.092548901992263,11.521178049524652,6.304387349765997,30.78583988489122,34.828227137209524,33.65667252455699,25.809969955542336,55.58445126282328,163.31128726836954,73.48847821178302,39.820253666198504,8,1.0,1
5.442,5.05456426804739,6.884969136549746,7.036655420622284,7.231368498769211,13.646569115035277,20.0154224159638,15.356926894225138,7.211955489987563,31.882814942344442,44.5438485899831,49.44972842870952,33.79107658235425,74.98702076240052,193.74361854983871,99.12446295315661,49.75067790345028,8,1.0,1
5.542,3.7687516030071744,5.484225385516666,6.468008232735101,6.969429379490666,13.549532198503368,18.41467433411878,16.474032857190853,7.002209565396063,23.054297590025442,35.266675950054044,45.47042150319812,32.638803042815695,75.03739735944136,175.93062885168808,108.16265539788921,48.41154794570466,8,1.0,1
5.6419999999999995,4.957107074301204,5.349909736806581,6.596337961490236,7.760532959635108,14.068217127057395,13.979685681223465,12.421489723323111,7.536541956929624,31.880260061596886,34.348915881265405,46.51675022336665,36.74408237791734,77.22210337004248,132.51734290774374,75.89482373045574,52.453630539914,8,1.0,1
5.742,4.067174971576084,3.8411560360745884,5.019899453235003,6.031897056891399,10.62271571193281,9.214236576404794,6.0885736903292935,5.366638377585628,19.70052994587852,19.077073309797623,27.41942398100526,23.159829399015624,45.15423345219334,72.49648206218424,28.712779766827737,28.955787290150774,8,1.0,1
5.8420000000000005,0.7628862939571682,0.9527201448618132,1.2669661044365095,1.9843110914572202,2.283514715746928,2.8007822316645177,1.4436346698641418,1.3556183537531525,0.1627264088986017,2.898177676454975,3.816181485045604,6.570036350789694,7.345503896873946,17.99961847580951,5.345373335420505,4.024812746827832,8,1.0,1
5.942,0.4648131066524686,0.7897631174961893,0.6065593409503692,1.477868641522736,1.2911980282785038,1.2332693139030273,1.1130439507889958,0.7028932983866604,-0.8727424905856388,2.243223092086163,-0.34928058276361695,3.7912445348511086,3.7000135778764083,4.976936895500229,3.639725866273847,0.7754317645368998,4,0.5,1
6.042,0.6062150618276023,0.9587100780358516,0.4783471800600162,0.9720284831352403,1.1669748779330982,1.15743858643016,0.8652700099945159,0.851983969019563,0.21153529475396224,3.5608323872765077,-1.1293022239687214,1.5189031784261047,2.976924616919855,4.514960766937721,1.8049678650884367,1.8206634441661098,5,0.625,1
6.1419999999999995,0.703837331819669,0.8178807961098915,0.5281703232102067,0.926394996002998,1.2976709503200576,1.2263332088434926,0.8365768239255326,0.7825253400200527,1.016265687094067,2.146616895296982,-0.6084020660231177,1.2377764602980352,3.8575469339928965,5.502410613864905,1.6914610527456215,1.0826977026928764,6,0.75,1
6.242,0.6642479979130683,0.4765562270326728,0.6710583357495482,0.6428928323159044,1.1826101370780289,0.7380758129263171,0.7870157809706575,0.39275504391647603,0.6901477163047601,-0.310291236824935,0.31934734041262824,-0.8871502971598957,3.0741311264566993,0.9257369770337363,1.1486697168110944,-1.6675805637760774,2,0.25,0
6.3420000000000005,0.6067502589623782,0.5531616035277931,0.8400704388166925,0.8631689352203658,1.486733315759219,0.7179838938096564,0.5111886212820698,0.436974824286589,0.2811222416358717,0.2710762246050741,1.6407113821242507,-0.6859034925768005,4.121715427396454,0.8975182523601205,-0.45435674386536384,-1.4808276125784345,3,0.375,0
6.442,0.8141638402008498,1.141536381851244,1.5797535274474828,2.4069619584961273,2.4046669483686136,1.0072673447182467,0.7255019693676494,0.9774706808129213,1.7092756234400466,4.340657085388985,6.455508000681182,7.310006219932336,9.710394189924793,3.7794121884312046,0.9141616364911048,2.302177793764458,7,0.875,1
6.542,0.9386686646858692,1.799947738091736,3.125516614587225,4.486048756217907,3.928959012387571,1.0653471446847163,0.7488221804495957,1.1919811945437788,2.8041848590015013,9.377169914606423,18.699497960754865,19.260592086833313,18.350314940487046,4.476749697419629,1.0544765144796149,4.558546157338726,7,0.875,1
6.6419999999999995,0.8905383532243767,1.8909527690536059,3.3779104492963503,4.564162343083463,3.751531984717411,0.7627302373398607,0.5974902272384567,1.1368566531965543,2.450835298406692,10.126083268109047,21.36027845175206,19.531762238506502,16.100896478490455,1.0714952262472661,0.09968906178516361,4.130102552794059,7,0.875,1
6.742,0.7467620325874369,1.3416554107321725,2.545854942764697,3.2556142747701937,1.990237079126255,0.6901931448457201,0.5711057896114855,0.8708517131415522,1.241131341504856,5.860990652194083,15.18320205556672,13.28414233603541,6.949850367139992,0.4650824650893006,0.006732913270363258,1.437411188225376,6,0.75,1
6.8420000000000005,0.6231181002646254,0.9227057923647171,2.367573617785986,3.5767988241778084,2.1958811767534723,0.8240915684858879,0.7434887452187912,0.5095207219689584,0.364583186930883,3.2438191648726056,13.774254976344043,15.06365328841856,8.603733392223244,2.043602911675252,1.0330238937813283,-0.7734469715093621,5,0.625,1
6.942,0.5512903532077289,0.7534785886093132,1.8119308755811012,2.9786323789636264,2.0325342109734765,0.6931932690373791,0.7483986716330806,0.8128609550648235,-0.270515312775817,1.8176234739487387,8.012619079246344,10.218834117662123,7.21077176227395,0.6582673523550752,1.0012631763640516,1.447944303208044,4,0.5,1
7.042,0.3775768418822528,0.544171431513764,0.9914020279461814,1.3988262544728687,1.1537274916209712,0.4760715225566973,0.6811879642792705,0.8838126562596228,-1.5533199889913627,0.5777768789170186,2.824863527746364,3.534029226211272,3.046002965170899,-1.5176508797244885,0.5811749363664392,2.179774345432123,4,0.5,1
7.1419999999999995,0.3337512179734319,0.6538765288264243,2.225098305646397,2.8082667494277045,1.2724426287150206,0.4773004948002545,0.7081226344108286,0.8142165371437535,-1.8567061757513184,1.3427364516416114,10.966119757416143,9.838502701245414,3.7815776345051733,-1.541248794142947,0.7793945147159522,1.6379058340716828,4,0.5,1
7.242,0.30398460278588624,0.6905639724058524,2.4924270674468825,3.2330502481466397,1.1336515394302955,0.4776438338459737,0.5476455953144592,0.720816470020043,-2.0802057418585416,1.618374634344157,13.806433522504037,12.62806321638623,2.825367700104004,-1.5681534768981682,-0.26628953426781915,0.8261315627830376,3,0.375,0
7.3420000000000005,0.31203916385620456,0.8729248124982025,1.3896862269451382,2.073631945688406,1.251550507824987,0.7110211208462717,0.4638414840146771,0.6325116689781698,-2.021947522115015,2.7847391862693076,3.642644023325771,6.047791797039384,3.388557550439695,0.09679123601893842,-0.7067095976960494,0.3028095842686943,5,0.625,1
7.442,0.6333574048049752,1.0836434590252753,0.4780627100506298,1.0025004329652503,1.678340456053681,1.0148690827661242,0.6407394289041968,0.6479703347126701,0.0887112405318794,4.459865814458892,-1.2483655036152073,1.5674528331027848,6.104873453114133,3.737445677327296,0.35741074603937145,0.4294523965598881,4,0.5,1
7.542,0.8603125720172949,1.1518910423188644,0.9934198871335129,0.9499827588748195,1.5468344430087113,1.0725629954383646,0.7869205699805574,0.48572692816612323,2.079153445447334,4.934447396653078,2.3572752156041656,1.0790262282530025,5.212539449970497,4.581806093292058,1.474376574538535,-0.8937904278770903,6,0.75,1
7.6419999999999995,0.6972169568678507,1.3028120325732482,2.9084310240755618,3.7179002610682597,2.055168799082816,1.3816662368986299,1.20937084500555,0.6253958116927412,0.5549053402076527,5.863693654887577,15.108656353270174,11.923461584062961,7.426896870498313,7.269199774288168,3.9736322518942515,-0.06365039266300865,7,0.875,1
7.742,0.44598373538132924,1.4919885240745372,4.133416114096534,5.812719294695389,3.714360421587495,1.5276667541938416,1.2991459288265759,0.7543534738402282,-0.9639840715352387,7.259038076869007,27.26383433050974,26.39570559680191,17.01303559951652,8.869899929832922,4.758181621612737,1.2256846556736174,6,0.75,1
7.8420000000000005,0.44949533586671914,1.2186125346560075,3.4913886243320786,5.578368245720803,3.7895999769908886,1.1034676885437118,0.8597713941826148,0.903556417902285,-0.9317396485965235,4.683649722928197,20.974204069657198,25.23010101407042,17.191175279176257,4.174118805515184,1.7647556236382307,2.228278510981224,6,0.75,1
7.942,0.6510297329861874,0.5912814050800291,1.740028420340848,3.5037821271889813,2.1800284378957775,0.6623627896541614,0.6911326299439703,0.956723295711632,0.2799231204767253,0.5992724426273216,6.668351601821911,12.911930554624153,7.475483253911139,0.46193932371514,0.8411840773967073,2.6140142870895553,4,0.5,1
8.042,1.0652292842806819,0.8701332940457726,2.4610833859694217,5.415021549418578,3.0380471051927813,1.0878918068727428,0.716343446435198,0.822246908440293,3.506543598906629,1.9703424842381658,10.84400202837916,19.85489441781697,11.202220194100105,3.6972770984551824,1.0296594043966454,1.5625371785459727,7,0.875,1
8.142,1.6508973096253923,2.8675356765251334,4.685930094266176,9.037041782561287,5.885140907645135,2.051209176475031,0.9577567513081795,1.2950090226974098,7.940431407303831,13.985332677342495,30.417195248135688,42.74651440559637,28.799812985685712,13.268959816708426,2.374346673016952,4.699169788998034,8,1.0,1
8.242,1.9300103384604035,4.444314979276411,6.781210734748379,9.492899800788791,6.879254235976329,2.253993738065531,1.6301300085214356,1.8057830749031503,10.372361814802385,27.89730388165604,48.05899982010138,46.52991098656797,36.1715220740386,16.25534130880011,6.7976166485551435,9.156415991377663,8,1.0,1
8.341999999999999,1.5543132978641403,3.7450506221071147,6.318152208724286,6.710742330786713,5.074544922074522,1.679223931153111,1.6220463491668589,1.56425566002043,6.95294812468501,20.54171334818519,42.458972796343666,29.519707252994312,23.74630132836067,10.331573726263077,6.748149281109299,6.651636998585088,8,1.0,1
8.442,1.0993373239978863,1.9166280789024615,4.05547724496112,3.5380124260379873,2.775285193468125,1.2491303865728758,1.6371153056369439,0.8375048446727644,3.560258347741126,9.105459379402692,25.224668106180594,13.434989410047416,12.014729528694307,5.927107718908625,6.644975148572651,1.399506955814231,8,1.0,1
8.542,1.9386570249833375,2.617428015345388,5.4774600750661415,4.508063571403297,4.424428863389491,1.615316381298394,2.2767829434311477,1.0076597016099689,9.085242393892957,14.13318112931852,35.33425880163634,18.06369742973859,20.036458613405536,9.171338866944101,11.236767042132485,2.6240703986258396,8,1.0,1
8.642,2.4993583756702167,3.054647444487469,5.708697309129169,4.857514527210876,4.91821387601315,2.108321761108556,4.855241560589115,1.7234214608306995,14.721678412066378,18.37858379272864,38.83250974645544,21.35525750591015,24.180125473173554,15.029127613331553,26.095926070034057,8.192262347918263,8,1.0,1
8.742,2.62425433957181,2.9694598381426043,5.175707603827512,4.851249701940525,3.7892546714115625,3.238652159195809,6.616178584877838,3.127046867099498,15.618665919985636,17.843478892521965,35.29296142300427,21.470226222965707,17.954444996575955,23.69998125586069,40.74985150916573,17.72385592868112,8,1.0,1
8.841999999999999,2.7719522116366204,3.542918009604309,6.716200130677354,5.6193287180666545,3.8007658455841145,6.000234656961891,8.095504598702675,4.764749886379003,16.624776814810183,21.715535121897304,47.714541810953776,26.239596263197747,18.174968624221602,49.95569121117548,50.3217577374115,30.67721391993023,8,1.0,1
8.942,2.267285062248997,3.3190706743114737,6.5457317069502405,5.952756309074519,3.950441648219609,5.8857727370524024,7.000455542047526,4.14279211189215,12.184611916210565,19.75212546536224,46.249683007470416,27.559355955306625,18.888257202608834,49.41175987332313,39.034741296370264,23.63419110323611,8,1.0,1
9.042,1.6885286254719627,2.978004847381382,6.744532818299698,7.3438435344527875,5.3297717032584,5.012392114652588,3.4853195780401585,1.8484182593201794,8.501391591897692,17.61283426520504,47.687897330796474,34.64755620920633,26.22859173112541,42.1031038658529,18.650249407384276,8.89903964168787,8,1.0,1
9.142,2.1132271824288713,4.3973738198603805,7.714406094055963,7.086772665002539,6.879997117193196,6.46247859526649,4.235724922426986,2.5269219738149897,11.589919541036835,27.495282619342515,56.15323458322452,33.40984291965184,36.384920956207324,58.05668726781531,23.994925993571908,13.620150094747242,8,1.0,1
9.242,2.0679477579173797,4.455326708271569,6.623234790790694,5.006517505832905,5.847233710664956,5.791130842225474,5.434171307381193,3.322108754917095,11.153719601944996,28.066282352929612,46.05396065087323,22.02770953026937,27.831287503060395,50.73405111315289,33.081895253207065,20.7648040257561,8,1.0,1
9.341999999999999,1.560258729983436,2.9189982221764104,4.037712658148551,2.9432952622059934,2.9990184817086827,3.9659347468727293,4.678569728469429,3.1310520760860894,7.290468112951629,16.709979153933073,23.6822016702694,9.014484984678353,11.572717235640607,32.5451825638869,26.06764628194618,18.506918351075264,8,1.0,1
9.442,1.1024667620293056,1.845501756161792,2.762492550830584,1.3444350866332329,2.0482034807579894,2.4687690074099256,2.3563753727343792,1.970116660556845,3.1895592349406128,9.73888728128196,16.35490464344445,3.1301549698048423,8.111695494417436,15.134714104156355,9.90515641120469,6.02439778821923,8,1.0,1
9.542,0.6510583810863422,1.2968120035870763,2.921501400939486,1.30041259377201,2.371858327733146,1.1286698397792898,1.2134446679276558,0.5464171672605674,0.5003770982997341,5.461291496592043,17.851901655894864,2.7060525488537106,9.997524267715479,5.100681742317091,4.358070453408243,-1.3109494932682824,6,0.75,1
9.642,0.8565702660248458,0.81661540582809,2.0404089946600075,1.112569544760672,1.8565468364052826,0.932541163785112,1.1269861428527395,1.0574092270370725,1.9433917590776963,2.3139373243704062,10.789401407329349,1.7930740781158172,6.248681849534122,2.593308066311427,3.5970558031066724,2.9958921857748804,8,1.0,1
9.742,0.9435071900663257,1.7850819325828402,4.095784963965516,2.5193132559641604,1.2452524586099534,0.9054290691450729,1.1312337264848007,1.3405590663695064,2.629756478063723,7.689477335116651,22.271486327795905,8.457648562194397,3.3057382581233674,2.3127521318993396,3.3857809140129427,5.637232204001477,8,1.0,1
9.841999999999999,1.1649347259233807,2.2106464575280595,5.265949982931257,2.933376435571494,1.8164776004769538,1.0059169348189607,1.4983598755154879,1.2667572422022537,4.1563887003989475,11.69248667755043,34.488430018758315,11.370489658289276,6.561645418617981,3.589571660777186,5.8948976737577,4.879990099365656,8,1.0,1
9.942,1.0492901836725739,1.4573533599229778,3.5256113964634666,1.8911706929341958,1.731534136331387,0.751850724167136,1.2087895390259664,1.0287025210531673,2.866145831219988,5.166335035206617,16.214382243496395,5.096287706521442,6.0365275994414045,1.200150652767762,3.2129928650416515,3.114652129964139,8,1.0,1
10.042,0.48143941721297306,0.6688005734897712,1.4078206168447425,1.3016883382982796,1.3206716775817542,0.7717392540572575,0.8908497362631929,0.8321367833789255,-0.8463316991054537,1.2705588129070116,4.758537147429249,2.8931402637138897,3.7333517200449413,1.4699459738889686,1.730004366389584,1.8445161153359184,5,0.625,1
10.142,1.325054881265035,1.3990748949140375,2.960647489803609,2.5400688623414225,2.3543098099939828,1.3333520264948757,1.206815422488803,0.9537620164525581,3.7860004476612454,5.8228657740736365,16.761519749032963,8.947303893192691,9.035208645208883,6.530647541025208,4.28263080150241,2.6415229219525846,8,1.0,1
10.242,1.7881546238753436,1.7861838907433405,3.684193529337411,2.9756327370365345,2.5639251663219884,1.5606513624958345,1.5102792540642545,1.009673256987357,8.591657297825318,9.243251669217665,23.748315598758495,11.594016835108324,10.685854928983522,9.265696278163096,6.256782791359942,3.072919883331056,8,1.0,1
10.341999999999999,1.656840466783351,1.8696643618599715,2.8834448713003145,2.3173724105270246,1.7478350358570074,2.3893690965976475,1.85733976741513,1.5812427028854046,7.658031073787141,9.673591528140198,16.436055286999213,7.832237751548087,5.847844382493539,14.07818899703012,8.619243705242114,6.2704351765013815,8,1.0,1
10.442,1.9898067906284547,2.509969312371645,3.0283325344443677,2.2798532376804097,2.3631167108088933,4.903108889094491,3.9037013634671336,2.7226883389608187,10.272424898405415,14.057636344805976,17.735460196534568,8.10391569532057,9.09174821685135,38.28360374106653,19.977363691296947,15.322924217776599,8,1.0,1
10.542,2.1087026280980163,2.4061987076248332,3.275890480731981,2.7259827359759883,3.207186606162487,5.417484623998414,4.857387724306937,2.7690284094632456,11.639692821226268,13.309726109878516,20.488209962157594,10.796463872716929,15.030577836082273,47.5190571598375,28.72585224217271,16.119573010392017,8,1.0,1
10.642,1.9205882602646211,1.456841056907012,2.8127483483133635,3.516918912530536,3.632224712588938,6.466495326782427,6.441602791325921,3.0568641583521368,10.262674869841721,6.897116267120938,17.099719970274293,14.668317713954073,17.49919251753719,55.1822117384379,37.27950188776374,17.563841326231568,8,1.0,1
10.742,3.1808868452486787,1.647798626882637,3.074943272846061,4.712185279766181,4.598043461626235,10.132385096808635,9.81673747146574,4.517582670437328,18.467398778849603,7.945257565062972,19.148842993871224,21.126740197003922,22.86897557691092,92.70732943222372,60.84363045720588,29.035971399707687,8,1.0,1
10.841999999999999,3.987361901917109,2.5305767289972647,3.357569486560926,7.263626367932419,7.935662970232679,14.163484888983104,14.179099020305541,5.828893377441747,25.897696024033156,14.248336560348093,21.261987793458523,33.6150571895346,39.886021226405305,134.04403770355378,90.793275879236,39.07008113005962,8,1.0,1
10.942,4.882393738519881,4.0384575528102316,4.775115581470558,9.174926955307713,10.358582143668501,15.485034819752363,16.85389880542427,6.929434040692427,32.28920839045134,24.636209997003363,31.587842287750505,45.0005538031077,55.9194497991475,147.4868114163955,110.1850045067119,47.51519545900942,8,1.0,1
11.042,5.045318962196219,4.8007090721503065,6.034154215866066,10.252614704192892,12.37927647905482,16.516955490441795,15.456664923229347,6.932970159992745,33.19967481235407,30.715737972280767,42.059396832717084,50.0543448553853,67.68708719001025,156.9903249525596,100.40933699026559,48.04491068305198,8,1.0,1
11.142,4.164364549779833,4.347290341884382,5.223878812165869,8.556902764889317,11.22662606968086,17.245363441160496,11.779442171876068,5.677171804870061,26.317427425965093,27.29738868570228,34.58693220303919,38.49046275850789,58.91351853124176,164.49750250346364,75.19464297368197,38.24993967048211,8,1.0,1
11.242,4.386896427060019,3.726151056672401,3.4763677388362373,4.965378776659947,6.329054301838433,12.496315119728521,9.989561537150838,5.780031225615745,28.532880296510893,23.233617099637318,22.38609705460929,22.517224625960942,31.387822813499202,107.46231836919792,63.82502442523236,38.93165712928021,8,1.0,1
11.341999999999999,4.03687329965841,2.8842622108652924,2.49254685160854,3.916858165721172,3.905154098171772,6.208882183332484,9.316892475153614,6.081559618239029,25.27888770173883,16.58437122842389,13.861183126689133,16.273659513469696,18.72622320546556,55.11903054816082,58.4973810965741,41.18746272017593,8,1.0,1
11.442,2.320585844291887,1.587917988000464,1.4517316583392008,2.434673341740846,2.656454408001248,4.285557248299632,6.4058135499289905,4.416357235280709,10.3724215714154,6.7550306691187005,6.322073112034871,9.04876400891702,10.486595793246593,29.97387698141535,35.554527436420656,27.208743647678762,8,1.0,1
11.542,0.8385045597562744,0.7175773730461421,1.1341477952389225,1.7187498717920917,1.439137555763818,1.4461086572089263,2.885830006081755,2.320895680590921,1.9713613299739463,1.6744561146546275,4.223568744983549,5.100247998219481,4.688181161042759,7.43642943078958,14.932252128526665,11.923842642538673,7,0.875,1
11.642,0.8913100826843064,0.5455543677553211,0.99931254291626,1.0127384160643256,1.0550323486117221,1.0579664051579931,1.6143150946588565,1.202330992281977,2.430194753348273,0.47807274061212207,3.080610552560355,0.5325140055305977,1.8544885828326998,4.158186129979482,5.706323747652066,4.06453918610423,7,0.875,1
11.742,0.8254340668525096,0.7482655150728466,0.7027468539703352,0.2717208464682557,0.4568224331490718,0.6995544866600641,0.8779457439349678,0.8077233005598528,1.6680656700576475,1.5765631759755396,0.596194258622442,-2.240568411876848,-1.0472446466032932,0.2984730176288246,1.9935456499009774,1.6672116000593569,2,0.25,0
11.841999999999999,0.5167015581474675,0.8864446245921986,0.5105251359706361,0.7988759143720741,0.41732983741949675,0.5966751680949448,0.8157848967285997,0.6805905401348927,-0.8222955897342935,2.7473366525965686,-0.8265701679780681,-0.1271217565728273,-1.196188163596639,-0.5627188863051247,1.4390115722993455,0.6467859346742422,1,0.125,0
11.942,0.32551571127356843,0.6315078635225294,0.705970687007323,1.0664842211646588,0.40725796514274676,0.7750440110336269,0.49853576037110525,0.5120357533566209,-1.8751148845183607,0.7726599426422757,0.6181745917057491,1.8778616050240218,-1.246804637904521,1.3052216522624316,-0.486320625456636,-0.6692482863376732,2,0.25,0
12.042,0.46903080057756813,0.6135806588844953,0.8158881660022402,0.8787593228784444,0.41770035493845414,0.6396665404932702,0.5400525939193979,0.4622556495879241,-0.924369628750803,0.8712458377428385,1.7200294762953916,0.8810299644997871,-1.1964704602929235,-0.24168912146605903,-0.2314861137082839,-0.9730592315861889,2,0.25,0
12.142,0.6543370844944024,0.8111851497668542,0.9433116568182882,0.5946112636452164,0.6097272966173908,0.5137061233050424,0.6661673655395318,0.4900258488687674,0.5482686572406669,2.4867998792467256,2.610012296917289,-0.5385362102318436,-0.15149752332714267,-1.290861252637484,0.6748178080578351,-0.7486571981589156,1,0.125,0
12.242,0.67988521256584,0.82074783913654,0.973279366653526,0.47578978254750376,0.7506202099591431,0.7261699621675757,0.6618092996057774,0.5405822597385449,0.8080084306100556,2.543427763507659,2.7583113179288086,-1.12621943426086,0.728368077023291,0.8299936866782538,0.6460381440522883,-0.40800117548457493,4,0.5,1
12.341999999999999,0.7105243345324026,0.7280007840134457,0.7423693117631409,0.39810823438341647,0.6118518637239998,0.8146484746077929,0.6782230545187728,0.5140758285846413,1.037143137454091,1.869526615071642,0.9431072016822881,-1.5723632533051224,-0.2633919516754769,1.840325328564095,0.7401517905807247,-0.6599168007266509,2,0.25,0
12.442,0.7249525091564647,0.5761592961769094,0.5184175813736802,0.41191540707574287,0.3196766742386599,0.8433685323921881,0.5933282043484643,0.6005091697042837,1.1668675169738145,0.7377230516075052,-0.8527677742662261,-1.5338506913091934,-1.8755141301092262,2.1720894740179237,-0.03293183351579101,-0.1587229821754188,2,0.25,0
12.542,0.7274481588602671,0.6879388321988112,0.6996115921092233,0.6531885989314913,0.4694599620765091,0.9443958421310109,0.7799302390401595,0.9234122951202967,1.1500886138952127,1.213804415228617,-0.11826536394262832,-0.34638431138696174,-1.5749608534200172,3.1988205695326455,0.6614552298315989,2.3920177927020374,3,0.375,0
12.642,0.9939114941023071,1.634966094445738,2.079582514099116,1.4792501113072027,1.506310910333277,1.0391234949525143,1.8108845717976938,1.305071442196386,3.0229486862121204,7.233028174313915,9.387215194655887,3.5006007082136064,3.692108208342897,4.1762458058894785,7.27380891987097,5.257984519906889,8,1.0,1
12.742,1.0057108424637102,1.7710259910032582,2.757706719764927,1.5708280740380305,1.5873960710896986,0.9156257019665509,3.3075871190773527,1.7299438950822912,3.077304760919692,8.76573187700846,16.900200651956403,4.264479142407207,4.882443852378543,2.8329258411804563,17.601647700377978,8.525650959874355,8,1.0,1
12.841999999999999,1.6000490706095334,1.2100235043082803,2.212236560523656,1.0059308191883178,1.1556755016526115,1.5393568191162634,4.415553303310117,2.1209575789624715,6.605884582071157,4.820532820410589,12.01335900999504,1.5858946041043027,2.7439808813866433,7.488010516716062,25.69157421946594,11.553335819313812,8,1.0,1
12.942,2.3428960711683327,1.467364370090635,1.403694722555421,0.9913215775072269,1.3644106598196875,2.2489408396268327,3.6340995349775076,2.6130953618188784,13.327387653729758,6.582242269342933,6.164314862250436,1.5950882101830917,4.1858761944155125,16.069308359826685,18.713592880855295,15.20754714920995,8,1.0,1
13.042,2.404389929821211,1.6540738209909605,1.2277870739950878,1.1871208046578419,1.4846423165794098,2.199358723803715,2.2450520867897508,2.4021554329881556,13.970929147500112,8.388212415496616,4.815164975653951,2.573642531015942,5.017215552444069,15.804597653491351,11.095834469098657,13.197030637563762,8,1.0,1
13.142,2.9245934936086257,2.5688563785829466,2.6750082577844383,2.073134604774679,2.3975655609641278,2.4817273676345653,3.423743086503193,2.5788310478742256,17.32549561839749,13.863714194878042,13.852131401247046,6.705890549435925,9.42126408666045,17.34113414921333,18.504943358963786,13.672755449240526,8,1.0,1
13.242,3.6738434339461983,3.1342883788111324,3.3910881446284797,2.827763927867015,3.9635988347280287,5.908836162030222,5.446200581503354,3.6509863181375466,23.4964149127863,18.945453919931474,21.703370576115987,11.189840187869184,18.579334157952896,46.80593773601963,32.22352430203819,22.37468897469865,8,1.0,1
13.341999999999999,3.648483994836522,2.723527740904991,4.275990898953503,3.782581794648439,5.079275868713759,6.734166888845626,5.734402425376959,3.420951157495371,23.436621353383455,16.066678872998914,28.010976764185692,15.992341765150005,25.811178109735057,60.136095578813,34.812421662094074,20.837549246070328,8,1.0,1
13.442,3.002090638063736,2.4936091519495074,4.765572504489064,3.517470095757536,4.063053121709014,5.177315588474188,5.571518584393003,2.3931142542813495,18.2540223425926,14.609385846499109,32.532392663302154,13.981649150180393,16.944122480661328,45.70215553880768,33.591395717640815,13.576721329463279,8,1.0,1
13.542,3.505442722281875,3.276382041827456,4.3834377373074584,2.5442615010652387,2.5793876248631684,5.869047749195056,7.899480622424802,3.8263789099777568,20.802796661740224,19.42248297891821,29.46795606359438,9.304397046757234,8.906416213494705,51.22197233520323,48.69219398323335,21.635198546364244,8,1.0,1
13.642,5.704299930726355,4.934911987457011,5.1311500509832,4.221393619744222,5.339911880019941,9.176262045673461,8.77335754364542,6.694738623616911,36.99367767967573,30.927177965319032,34.874809671589944,17.42150855858595,24.04120559923208,82.26119979971526,55.85109131451763,43.97513351069368,8,1.0,1
13.742,5.093018197723991,4.3599410450093155,4.4295368642639055,4.326047092424736,6.0531026119180025,9.62414695512106,9.053593154668995,6.430768001124074,29.53726838640357,24.245059265879213,27.319065122478243,18.5291594822642,31.111802631584215,88.7794928303966,57.49002871520655,41.934979055911406,8,1.0,1
13.841999999999999,2.9824444031329254,2.5122236133874623,3.2877651501585072,3.23410187708215,5.691786016977422,9.50780973407364,8.741237101613825,3.725572826036352,16.756495666739426,13.129166239698915,19.889200566189352,13.432961423467734,29.268277143380935,87.98431632708494,54.13872043748548,23.458892653018754,8,1.0,1
13.942,4.278826110616615,3.512819482985749,4.333601637690862,3.223127906857027,5.681761895549922,9.144227225913768,5.752349777557825,2.95385683950271,27.081559011919346,20.400973803631345,28.29736873396618,12.893149412421645,28.357449019244605,81.3585554968112,31.30665512573812,17.80368729440417,8,1.0,1
14.042,4.009597531797969,3.1720241276469254,3.722451952263584,2.2514996794348163,3.6615157858189047,5.1933600106849775,2.6841128059590327,2.2735696600811357,25.067524500695562,17.829505581723172,22.758080319342834,6.255899076933541,13.435114478418134,38.55368232902724,13.989834517708482,12.247781632512726,8,1.0,1
14.142,2.517247260358825,1.7604484962342648,2.2765440067094906,1.5794365680979205,1.4604394884045686,2.810396996141114,2.375295513820812,1.835045074211549,14.5984073336809,9.22780118850984,13.223681104439688,4.042098338458978,4.490614216708526,20.991822397801748,12.10968431324684,9.430117980430044,8,1.0,1
14.242,1.8097132100706832,1.4385083127168412,1.8064161933721203,1.7532859068400068,1.8267316626949794,3.3887144680022963,2.6206886468792563,1.7854184703731772,8.753493360636654,6.760147649479005,8.80503378869609,5.164698230398412,6.601210980041303,25.88226017173911,13.668697563370563,8.852283415558741,8,1.0,1
14.341999999999999,1.0608523891482038,1.0471584910413962,1.016242762539614,1.014909075638719,1.4835194633970377,2.65652852289411,2.115940846579794,1.2048026038228543,1.9348882340235771,3.691597527040271,1.7947616415037715,0.6871758184649812,4.134291832703392,15.762120494136477,9.553259675722524,3.7452807071703047,8,1.0,1
14.442,0.4810540975786819,0.6625526546207171,0.4098787537833576,0.545107262270105,0.8287729051259729,1.238833363170184,1.060789003873671,0.676324929809265,-0.8698436329948338,1.4315878749681459,-1.5168788404754217,-0.918163983965035,1.105517715702743,5.856447003948409,2.9455262120548196,0.5750170445487136,2,0.25,0
14.542,0.5118683122368574,0.6369212482519429,0.4116178761069982,0.7056850777452736,0.6919292166199167,1.2446244290231239,0.59840591568336,0.7767459855592289,-0.5581006552568483,1.248597083694055,-1.4970592744618112,0.03689120580770774,0.2597825148837959,6.090872021826061,0.14149568774674043,1.377375042121693,1,0.125,0
14.642,0.3868685325636972,0.622166997792896,0.44449671691805837,0.6489902652899042,0.7699702696338792,1.0180282205226605,0.6838120182340534,0.790982108212035,-1.4487548829668921,1.081487407309573,-1.2476491551487463,-0.29397269543239163,0.6298281586956233,4.069492200932515,0.6079851196539371,1.542217989894562,2,0.25,0
14.742,0.3598830840191733,0.5648293301270111,0.7326468500049732,0.618789657467156,0.8681311029063198,0.9519907727901864,0.7924935952268747,0.6346938519945042,-1.6199939750790524,0.603560375848267,0.8123552707463938,-0.4238643007668115,1.230630463282687,3.368732155628959,1.4650365351722159,0.25238746213433894,1,0.125,0
14.841999999999999,0.4031251515716976,0.6860344593040151,1.0324037255447718,0.5203651040111936,0.654556894413487,0.7330071127351812,0.6239158769792964,0.5177240251884537,-1.3123551301232648,1.4444759798876396,3.289370109129321,-1.1001362504351082,-0.03218663322386354,0.9682069439290542,0.2281106883446627,-0.6018340015508283,2,0.25,0
14.942,0.48072275330867575,0.8302335104814001,1.1548825106991794,0.3562407527357402,0.668859963724048,0.5132735531243687,0.4048116665825586,0.5062537380898108,-0.6957113807476423,2.630304111112629,4.269020915569317,-1.7880963757203958,0.15038471414693183,-1.1540255811870954,-1.2129337622270329,-0.8009457197832035,2,0.25,0
15.042,0.4668607655477944,0.7467246445557313,1.0269399672336095,0.636580001428203,0.8010177189192159,0.5413780381568766,0.48443855193342944,0.6534081324735841,-0.8110084217354373,1.9360409662672442,3.217728558633683,-0.5172070860371358,1.0565961380953393,-0.8220038009789944,-0.7273598860269915,0.19416776550223777,1,0.125,0
15.142,0.5562456295456522,1.0006756292418395,1.3998357151124892,1.4614986229333666,1.167656926546526,0.5665851548118253,0.7008866331453373,0.7136029553090819,-0.29666243168507467,3.4370308965512613,5.56714768288191,3.4416032152694003,2.872685582588153,-0.5127228072903719,0.8841149324775474,0.8935371506681505,4,0.5,1
15.242,0.8616817488908347,1.4211887831498964,2.661150118828264,1.6943862346986882,1.317613777377574,0.8460409625007156,1.2284698249540886,0.8086154412997598,2.0102560504970386,6.815825993305379,15.137345354322974,5.238715096056478,3.952701719700616,1.657785117009194,3.9033764504363,1.5153192557531239,8,1.0,1
15.341999999999999,1.1637169962911413,1.7087537216954733,2.9961111282665036,1.8064061101211493,1.361118666184256,1.3504486473182387,3.3302868085432022,1.1636717002689234,4.4423319468569655,8.914542306970766,18.59622298470932,5.547001411639579,4.241592963756662,7.024009634642574,15.870545413255362,4.205730014969104,8,1.0,1
15.442,1.6480805145212316,1.6402546536078761,2.338139666595776,2.3253336295993225,1.3406647818111732,1.5459071327417038,4.1609625205875655,1.6330386990109005,7.68817498133807,8.353700509063364,13.470412874119376,8.281017520734434,4.102329434327673,9.360029136209223,23.578328353507374,7.752732104819022,8,1.0,1
15.542,2.327801269120776,1.6056779928900249,2.710771025905592,2.9171428753453017,2.254670854694332,1.4743302891571886,3.9601940310819574,1.8985237650910314,12.67865791981865,8.090183452539538,15.62104227821879,11.205060243271635,7.92112114800714,8.543728406890137,22.751358467238422,9.943434239643164,8,1.0,1
15.642,2.031651354253602,2.157477164124876,4.478643877594158,3.5456961462604673,3.1040436376602107,1.3624090827170188,3.8097096395142227,2.2016470861625925,9.587957022111041,11.946107082942664,29.127754013067737,14.69350102029681,13.949031544634195,7.182773721785658,21.981271521768353,12.109010285261675,8,1.0,1
15.742,1.2096785889297852,2.446490260367387,5.39411568709736,3.6417294978532113,3.0960302936485586,2.10508095954855,4.003345507370181,1.922827375780763,4.375689422918021,14.265904884794224,37.83097191779062,15.63192867431685,14.327566059307227,13.550160698203678,23.153960776910374,9.169576398674481,8,1.0,1
15.841999999999999,2.3652991677678306,2.2070582817109905,4.379673202224428,3.002200789405994,2.614998607555438,2.5373296168379142,5.3146555655898515,1.26905700002117,12.015998217465228,12.430462892310521,28.138436671948746,12.022299786109182,11.438282558291355,19.169401216602004,31.783637219218964,4.968943633453791,8,1.0,1
15.942,2.813724834976603,2.2231340912341513,2.8560240153817764,2.6811273701792437,2.6877169193984964,3.7403925266282227,5.3890904166899505,2.2254519861233257,16.958625163546387,12.474668818978412,17.18383958612386,10.46915434009859,11.73865471549867,29.2940473831406,32.311183817490736,11.221023850488647,8,1.0,1
16.042,2.586491492470265,2.0057816097625443,2.3551769284032167,2.52060611855608,3.066917386748793,5.1768345415468335,4.801786133962576,3.0139146120829854,15.345875754029791,10.531397826369744,13.667704259151924,9.527886667677404,14.140845963156522,45.40265177716305,28.039767710086295,18.102075584110192,8,1.0,1
16.142,2.5587290828223317,2.114756160589676,2.247703039394067,2.078811966001178,3.1390223606711087,5.847967317770957,4.807379360089826,2.9742891623932244,15.164278258166997,11.19155717930066,12.90057840765422,7.314163864152154,14.594563964357821,52.264835963274706,27.275476259184437,17.967588705445248,8,1.0,1
16.241999999999997,2.2705285143735185,2.3281453870346267,2.7426306415003627,2.227217632881994,3.538350982268979,5.396232422604992,5.329170903944728,2.722706868457375,12.885217104498043,13.205832868839778,16.613315768681595,8.019712330969108,16.789769487407323,47.0721072972731,31.184571250142056,16.21788055272952,8,1.0,1
16.342,2.0509348404967898,2.246790771833405,3.6240606812537504,2.629310183788076,3.8970859789908308,5.0871204750556585,5.367382255618447,2.938525746150501,11.178404192288706,12.511916464353803,23.382959066380614,10.16906151032229,18.9370233678189,44.25265064887367,32.282937729645916,17.81917255726378,8,1.0,1
16.442,2.9389656151485366,3.268025614371196,4.555556181002094,3.3920560197561334,4.207124664046595,5.396860425957259,5.22398573676216,3.167793033701613,17.124908604020156,19.398883914838695,31.041527696031267,14.161086117025217,20.803137282482417,47.59398896139198,30.801494806487522,19.50296926365993,8,1.0,1
16.542,3.817553311347675,3.978891427373071,4.686428427196007,3.2358489847864824,3.77050006427797,5.7909418720659565,6.83439113709335,3.7223507289693067,24.567644013233277,25.19662887406946,32.15329210940914,13.114794659669906,17.502447716358276,50.67115996571481,40.68015569636951,23.160583403746454,8,1.0,1
16.642,2.9924872204528383,3.078255243779331,3.376998985457985,2.144961541849815,2.1826344148141463,4.60573076028084,5.625633815402469,3.081593940735125,15.76381730777658,16.621560858679118,19.424290213933812,7.5626178107535225,7.025531163324848,32.6568907707629,26.59634781570342,15.234165877078897,8,1.0,1
16.741999999999997,1.5473606032766287,1.6043496165569497,1.9173836182324526,1.7463619834669792,1.011640543533462,1.74926567461363,2.5887885872696286,1.182290107868096,7.077583920039298,7.963917817909166,9.824812094943784,5.628823182567348,2.165729976204763,10.59842069359074,11.44674460694421,4.072148360949704,8,1.0,1
16.842,1.7954447470391046,1.812257713232287,2.110870176271227,1.6069519673670354,1.2025771328042836,1.8354726937268755,3.9061909255568414,1.2582430929148103,9.223466073057427,9.634404787887508,11.802379469323586,4.855689489862379,3.3921498000696757,12.042782586615841,21.797919963442656,5.019444740482821,8,1.0,1
16.942,1.6324552070439227,2.1302716762850236,2.0246451743604044,1.6293868749813942,1.2257736515122135,1.5556870435035342,3.658868556985852,1.664657988475291,7.878399469630598,11.922343543973087,11.01196717453027,4.948519748695724,3.530637579680574,8.595799269414726,19.744625949967933,7.896591959585625,8,1.0,1
17.042,1.0850830843354646,1.8049301544847116,1.3786682473252976,1.4063891697705855,1.5292839048763451,0.8990655825619001,2.1620435808765652,1.4653854324846955,3.5029228075093295,8.824364629603165,5.205006912781156,3.400201371974203,5.0680260654383655,2.1289002672747848,9.465957523232262,5.121527559665006,8,1.0,1
17.142,0.5938877460041457,0.889009351495541,0.9161045291782131,0.8440793300074534,1.5634477878862376,0.6958286110608124,1.4830964064998005,0.8436146627425162,0.0113852027559587,2.343605166061979,2.409389251305537,0.8005673544770999,5.0796978260626755,0.763588702101524,6.094193275667765,1.192870835484857,5,0.625,1
17.241999999999997,0.42301458429921945,0.44499017029123383,0.9368269681940725,0.6630126497567244,1.0201711312340607,0.7790493634801925,1.2921046169344723,0.9364694512440901,-1.1342051073242163,-0.14295015983172682,2.6105043425312338,-0.23247238742368218,1.7883476832486553,1.650543734778401,4.577060102415127,2.2134740252801293,5,0.625,1
17.342,0.6030238663038007,0.5481940152622049,0.7320827824479903,0.5045192190573401,0.6408390074254658,0.6349749851610687,0.7506653751582283,0.7621842634773447,0.050816287375038474,0.5365347793235073,1.0159192581240268,-0.9982193567596156,0.12530569187559784,-0.10831191753466259,0.5202556286192436,1.056816411366256,0,0.0,0
17.442,0.6549972334920723,0.7519390001131919,0.5156832826547597,0.572094221604973,0.544351778747055,0.5068700288774503,0.4904061174630049,0.5122735842478273,0.5576574959001388,2.0180064348578965,-0.9022820813418162,-0.6486058362265769,-0.5001224970388256,-1.1551885708650589,-0.6799147163394007,-0.7701753677630014,0,0.0,0
17.542,0.7366831594023665,0.8294080800371083,0.3145589509767547,0.5173632997179354,0.4640288931081191,0.5041389087045188,0.6491173300077501,0.48997565792578246,1.0724114276447227,2.6098588678111097,-2.2940106773547857,-0.9946364608563144,-0.920561168537849,-1.207348258852805,0.5376433308863245,-0.9956071358448952,2,0.25,0
17.642,0.8890208756405611,0.8152167398820466,0.3635915102240481,0.39990651312141545,0.5248843022267438,0.36111259351973507,0.7163909639618491,0.5922206978617528,2.3745346569251433,2.531794347355672,-1.8952161658285132,-1.536001081000697,-0.6019203025458142,-2.615500428253392,0.9804588751675659,-0.08893465254905605,1,0.125,0
17.741999999999997,0.7593300495867974,0.7854070711310815,0.45347531651446854,0.35771313818314,0.7286078449276803,0.32538036992785596,0.570758664495644,0.4859857207063838,1.3080389909682066,2.318953384078921,-1.1505670685672094,-1.7974509249657227,0.4901655532451035,-2.952709862391976,-0.3145938251607735,-0.9617685852041447,1,0.125,0
17.842,0.7684126968368153,0.6890561505686655,0.6626812946767633,0.35206249661635264,0.7428519692693254,0.6934223986177795,0.526864750161273,0.5581940763277295,1.372247909343795,1.551789854570646,0.3473938896411088,-1.8222127009743043,0.633763388038076,0.050590692016603,-0.6313678858648244,-0.5574047956827043,1,0.125,0
17.942,0.7530127792994852,1.0457489814832481,0.7635655313982019,0.4406546391232978,0.6743403612980097,0.8609117755534896,1.0419531418444925,0.833953924308753,1.2160163226373257,3.6586731739840688,1.2226778318643057,-1.320919033968503,0.27963290114504713,2.268127021872453,2.7882015163448046,1.7614270263113034,5,0.625,1
18.042,0.5612300246109266,1.2596769434576471,1.0280766334821922,0.7224880269329861,0.7695842752137898,0.8071796282155134,1.4549060884090608,0.9396044150479326,-0.07525079857897113,5.6697635051500175,3.0456583023943975,-0.025009046795883384,0.80527416456357,1.5217931323508433,6.006199361977792,2.6721754979154375,5,0.625,1
18.142,0.6379531237465329,1.3766805111957046,1.1525553907968695,0.8624408431704539,1.1199008233163152,1.780780252294961,2.4957305945194044,1.4985896335019826,0.4666269107152866,6.447740330569898,4.332757312155911,0.8492856315353186,2.6238422039851317,9.500377596657561,12.021711288270556,6.127022025268513,6,0.75,1
18.241999999999997,1.433652980863076,1.7618510791872883,1.0504969616350512,0.9037028638529555,1.5379285569695755,2.520283228645649,4.0458769954991265,2.446416253689008,5.339959010730169,9.243190621677908,3.5166351433850904,0.9761887070525248,5.2509977138214605,19.069290687322862,22.820670459006045,13.556536522917275,8,1.0,1
18.342,2.280732130559034,1.6566583421446173,1.1444803910794143,1.3883362997114634,2.0282656523104623,2.902290447165452,6.113601044078226,2.782753768449412,12.622447529866866,8.31132671146776,4.120724343868064,3.3648406148037715,8.012669717745004,22.902827694989615,36.859319461924805,16.682270395883236,8,1.0,1
18.442,4.528735281465167,3.525852487780009,3.1368066480529393,3.224781112080831,2.6209738141832526,3.0316488440677047,6.057867245896295,3.6538862840817226,27.15202549681006,17.686279675470836,14.46410072817989,11.650592684440186,11.433211747616701,24.25613745177554,35.88996469344976,22.37359331634058,8,1.0,1
18.542,5.680635334547558,4.760430096817495,5.705103474302766,5.267129914816954,4.003508339972549,6.37390840824625,7.962806729235424,4.326094839633015,38.047177816860575,29.602974174290722,36.57380594890691,23.48000421712867,18.549378508337053,47.71247447691405,43.511431924803546,28.113676812349297,8,1.0,1
18.642,5.5417623582751885,4.218888742836864,5.957422007354081,5.583311393158807,5.6195198800583235,9.683733878781776,13.254494745156835,5.913451290632831,37.804514684474896,26.429678881966687,41.390084853089185,25.871238208670242,28.47659936925904,85.26248855168026,81.5674693256795,38.83240779378649,8,1.0,1
18.741999999999997,5.468999341347938,4.086768330735032,5.3875592150938365,4.731664684628979,5.418116264116068,8.210774431074592,12.285321047925573,6.013009113053289,37.37796761790225,25.872366977335542,37.4424564146934,21.40863429114416,27.254297091929168,68.48664446822208,73.79626598770308,39.55158260794292,8,1.0,1
18.842,4.286972537880168,3.516619176518057,4.518167193289031,3.746415448315831,3.4642672084226165,4.412590089212382,5.792172124319986,3.3944179147288693,26.750101902115013,20.27457513349139,28.25404601824591,15.729569742097643,15.330726066790026,38.127078099761235,31.589181006343647,18.42896718900522,8,1.0,1
18.942,2.6402853595623137,2.2132306877396317,2.8387238483451855,2.6329404346163843,2.741426275843496,4.9068447053172655,2.953357426250886,2.0038185967638267,15.567298723093254,12.319617470569252,17.314057333318683,10.266192846181433,11.961977643181323,42.89180914597169,15.480955602563597,10.456318397069737,8,1.0,1
19.042,2.5527634489841398,2.2706749870834084,3.178365185029261,2.683765055222562,4.163243377384626,6.866991710916277,3.807877978417666,3.1743572641199407,14.88076422099854,13.000815288496018,20.230190329936313,10.545710485734338,19.948323501955564,61.41077206137567,20.63377192149549,18.726791762456923,8,1.0,1
19.142,2.8163447911012622,1.9025373259949205,2.8097532152431954,2.371601161992772,4.2095973072479556,7.20569441165653,4.306383655615393,3.640343764038586,16.76372124070923,9.73282974787149,16.934324972211225,8.18742539351697,19.73515356299626,64.41592157515187,25.01823249003841,22.778821863617026,8,1.0,1
19.241999999999997,2.2970760537289343,1.3149077655345607,1.741163658105886,1.3412799204478558,2.8066793930853438,5.993512936309959,5.078402646065568,2.766027640606555,11.91149514785963,5.8315623855378576,8.152254591026505,2.9848142860866163,11.742834567958827,52.77176810599451,28.736248890358826,15.564849741441645,8,1.0,1
19.342,1.2839738266384368,1.2724580367267904,0.9773642308345032,0.8434422870820562,1.7400508199402744,4.48925414830424,5.813978638304528,2.085313705718172,5.359038271173934,5.776127956483014,2.8248519822919436,0.7233372183395811,5.913305901184629,35.246237503550425,34.369147287367156,11.350389876364238,7,0.875,1
19.442,1.0990450889235286,1.1430876341205756,0.990027469806452,1.0709380333177687,1.0539984605047104,2.542773284339661,4.904720235281731,2.2258294181322764,3.9306777545234985,4.7199469258169655,3.0065035903933848,1.7064308324612554,2.337881271801314,18.342482759740378,28.665053852703437,12.446533726985168,8,1.0,1
19.542,0.8403652819397432,0.7934053368233188,1.0234856991570709,1.3504594615991792,0.9540561876691155,1.7598301462161623,3.2186462877784705,1.8040137379728696,1.9587652712653632,2.2105540391203187,3.3160978304018514,3.4233663594404122,1.950865910368521,8.79934305748057,16.11208056077664,8.670412405088602,7,0.875,1
19.642,0.7640621226833009,0.7258831519658391,1.015151485381617,1.0728974344969935,1.025693916370857,0.6407382423763252,1.6189884364425544,0.9807023362211214,1.4318864810633176,1.8181964194769236,3.0961835741466497,1.6856396616816198,2.3587107715010047,-0.03538969929161563,7.027627467658045,2.4686113937279606,6,0.75,1
19.741999999999997,0.8176564457107205,1.0054934404947222,1.3413990042770254,0.900548048413974,0.8414016953877278,0.7653325556805803,1.4712311182793452,0.5804962731920242,1.7969763952685258,3.7720756724490285,5.492661594385225,1.0241876854483576,0.9337290225349182,1.3354790791761713,6.025577697504334,-0.12474264009666755,6,0.75,1
19.842,0.6296427195569836,1.053329068071035,1.226504291047864,0.8918233726769307,0.7536227952031026,1.0033856095769274,1.0979051814927923,0.637080395659944,0.13750349737571715,4.139519150613554,4.434835195788162,0.935537887937031,0.3417836903876271,3.8288650279733694,2.9481351155949254,0.32546507567858657,5,0.625,1
19.942,0.5467600190998245,0.7130253287292551,0.7880815081531359,0.5916344726734756,0.9682535248762855,1.0152772655751776,0.6565425095725617,0.626804266665485,-0.32320330390145957,1.3377585385610842,1.4882707737748653,-0.5805729248891418,1.8020658491808477,3.830786175974371,0.47753731882414757,0.08653224419494483,3,0.375,0
20.042,0.58394175442018,0.5590153468954533,0.6808662889723495,0.6732476300474228,0.8028882944414152,0.7423933254593245,0.7485007927116366,0.4261523736296203,0.02275931182061671,0.5283724832360251,0.5897920548278298,-0.2425035583744078,0.802245559686099,0.8475693297013109,0.9992434863731173,-1.518721424900029,1,0.125,0
20.142,0.7348022245750627,0.7678870479403809,0.5853447666994741,1.062273141423871,0.5160381108087374,0.6598330737804448,0.9210259141843984,0.43297220937245356,0.9573839209641933,2.1581911141672165,-0.11191411093999133,1.799739639346647,-0.6219093054775817,0.27217725161886974,2.2183669411957925,-1.379029658776926,3,0.375,0
20.241999999999997,0.9340394254329132,0.7669409147388976,0.7029759967425854,1.290122245621542,0.4491789703724064,0.7361392624829546,1.0700283513069802,0.6144230716806013,2.666677209916971,2.149489225568336,0.7659858775489905,3.197317088746312,-1.0131012380726223,1.1413932638558826,3.4068262341822773,0.1181011787618235,4,0.5,1
20.342,0.712776412712898,0.6897488413829233,0.8566477291146559,0.9860836628000039,0.5340573431662375,0.6736661475799671,1.1686482924948336,0.7989458088631547,0.43049357441054764,1.585919131077914,2.0396634495343133,0.8919119220556633,-0.6414499793471916,0.5645240101556068,4.107330188303868,1.5473437709557039,5,0.625,1
20.442,0.3032830930853781,0.5423333024196357,0.820908723634381,0.3914287419811155,0.7664223566502848,0.6895436430549499,1.0428421901260319,0.8085442976367396,-2.0942860917711412,0.29771083055421405,1.7092783059478198,-1.8326578400940328,0.725496431534898,0.7534845159578474,3.1029330332790916,1.6210175331254502,3,0.375,0
20.542,0.5208582654685225,0.5003126646846795,0.6295710833963718,0.6521129824693245,0.7093176611518152,0.7827448695327405,0.8830991468302852,0.7179655180481042,-0.7295323124664935,0.04690345563624139,0.18077870021160808,-0.5958426000185032,0.3484989415744152,1.6245303787826093,2.1021140927316764,0.9763424908297061,1,0.125,0
20.642,0.6909830772664933,0.7058211559033791,0.5642770696302986,0.8844336260776368,0.4787505346022561,0.8952423737966834,0.84205807848426,0.6424145367001248,0.8679357516511029,1.648061834767077,-0.2659576614684833,1.0245579121102284,-0.8667273333046088,2.7364578522196625,1.8135566107465728,0.3590732764809868,3,0.375,0
20.741999999999997,0.589133877055163,0.691799543736596,0.6786573438365433,0.7992865882886442,0.4141815289907408,0.719236370536927,0.7100329028338,0.6915328715501405,0.027467085479919655,1.586823068793285,0.5587971599289583,0.5539079553732968,-1.2839531470833458,0.36546807682245086,0.960919894993747,0.6499968796621651,1,0.125,0
20.842,0.4752359273298725,0.7247199702323714,0.8033231807094234,0.6503648655537249,0.49665617735217293,0.3507835555980162,0.5490729544998091,0.7113079876981774,-0.7306445977610352,1.8137533007763114,1.4802917619162572,-0.19982397137809255,-0.8317177481800577,-2.7737478286223363,-0.2726869806384743,0.791385535225829,1,0.125,0
20.942,0.4298671685298926,0.7236397046132351,0.6618880237734399,0.5393212570292584,0.5509352680784421,0.26760669171500573,0.37699301456603523,0.5658302629463324,-1.1256304608296455,1.7791008133448902,0.08116052578414765,-0.8344251443989628,-0.47235810496726094,-3.6122117306570294,-1.3038827420303167,-0.21066956777962828,0,0.0,0
21.042,0.4097674983084938,0.5995319912896019,0.28720164173856794,0.7187601454461925,0.8012173569658224,0.5320630893235886,0.4349028282674005,0.813242896218771,-1.257937411023431,0.9482582515677611,-2.6974924784192202,-0.05792784684859163,0.7477194264836283,-1.6393086793111724,-0.9180725209429313,1.3337599834462677,1,0.125,0
21.142,0.4429094993722078,0.7586687642498494,0.45606553662287314,0.7213816738246277,0.8370756592496607,0.6567603410674854,0.5465071538008881,0.9624628114861339,-0.9809216891336279,2.0230452261656544,-1.9062919993226757,-0.08963629418728683,1.078641569195578,0.1925499835431182,-0.15454589500573396,2.6060772485668897,1,0.125,0
21.241999999999997,0.5969889476987685,0.8272417211589731,0.6401208221466562,0.4199583184047538,0.6035375101964532,0.6150008929410619,0.5418425689349192,0.8029236823353668,0.02407073674378708,2.60010894053012,-0.009438968117969048,-1.540739362453019,-0.12223602667280686,-0.24077044501642275,-0.19757417255430929,1.4612504172946992,2,0.25,0
21.342,0.819115792492374,0.7062249192060633,0.5709114961236148,0.4732549405538519,0.694458928506727,0.8491199351917267,0.6202385677198048,0.6321491832441049,1.8519795931761487,1.729804930704218,-0.5531542280714821,-1.2261307870875717,0.39584222492964116,2.0350183734042915,0.2706578916068113,0.2817479949991842,2,0.25,0
21.442,0.7772014459759432,0.6278905976880598,0.9748852793081809,0.4400092532152328,0.6944803219164064,0.8161962693588912,0.5841630176584335,0.6119546423738695,1.4910126802634478,1.1663457760543987,2.078971105971183,-1.4460873556504608,0.3930069240505024,1.5733897114221875,-0.18603722257705918,0.10921104838124199,3,0.375,0
21.542,0.6030638929403114,0.5567087737396597,1.1308546795424195,0.5027527483355267,0.611005464840632,0.6582785898194293,0.35194976881831397,0.6206982506641954,0.2444097622123203,0.6161240190275407,3.9581714155450625,-1.2234757028475172,-0.0672069857432227,0.10220683815040385,-1.6783532445868214,0.19874336936588344,1,0.125,0
21.642,0.6849610021027028,0.6159596118611799,0.8501577322407572,1.0384961634063583,0.8797403609647926,0.9261001264961416,1.0193798234487006,1.1207980165322649,0.7879283468378407,0.9954033478448446,1.6444087072433473,1.4147610091277865,1.0779528713859279,2.868844341139371,1.6406701901828484,2.902948779530684,7,0.875,1
21.741999999999997,1.1951011526297657,1.1940634206206147,1.9885774595522299,1.4938534637792003,1.6582538492947783,1.223758895569689,2.006290111810689,1.895706544359847,4.249335465572558,4.677007414279261,8.546094003468566,4.092572338191744,5.338639080510735,6.039705666260572,8.976076622644474,9.011778523495764,8,1.0,1
21.842,1.3556256267366773,1.2435731440232316,2.1882473313535633,1.3760588758521157,1.7134055014312628,1.1395820836312043,2.122179130106881,1.6792428411915983,5.823901910081668,5.159836363116723,11.491320021516351,3.4470300897972934,6.0154462133808195,4.6630248590085115,10.265701689207814,6.756544275882328,8,1.0,1
21.942,1.1345530496271747,1.1010652135971692,1.8500219757036842,1.2478308102492957,1.0713868875889792,0.9452935228145396,2.380030226908819,0.9817588807928027,4.255176993092595,4.26223379556532,9.24982319594896,2.855877158944563,2.5055947976167556,2.659839755640856,11.704519911841064,2.5317784405671584,8,1.0,1
22.042,0.9100618125188507,1.392211498945422,2.525922139199017,1.9617339675705512,1.0768034540656675,1.3668069229631772,4.295261616331075,2.0247463569428534,2.436875248631136,6.3994843159498265,14.828585558261357,6.353278181445264,2.2781203936075825,6.904637244232971,24.022554751069848,9.592039138058832,8,1.0,1
22.142,1.276756737876257,1.3196220925139281,2.363103556064636,2.9167025040772527,3.23737034026801,2.035888505560199,4.671377873612934,2.18277919782409,4.321023278090283,5.706880352876814,13.277083946330483,11.551481800360481,12.347119609849539,13.949083281439457,27.311808618957194,11.211004032191552,8,1.0,1
22.241999999999997,1.7830625622281093,1.448618286962846,1.6029939061110372,3.1685060569572974,3.7579123200417026,2.8659779287846807,4.806932312290571,2.136683253270747,8.79017033635252,6.629616363463813,7.7612079826398555,13.094072664801875,17.46450922461532,22.07211155684012,27.785136399532526,10.255809568248342,8,1.0,1
22.342,2.068435172330472,1.486914477631031,1.4085024330600038,2.2231854598150185,2.4805892266171403,3.035100372915719,6.263269388351895,3.4671543045484663,11.258186512729843,7.182502730289594,6.336520386894994,6.81209652381246,10.229394380202697,23.88040676881341,38.09119855444086,20.443542169177803,8,1.0,1
22.442,3.0541720844006037,1.8682854849920738,2.372865966989989,2.0150956049836215,3.08973088415856,4.2441776877594055,8.553522058624146,5.05475184227208,17.952059514511276,9.218094024653004,12.49858222904931,5.462766469943621,12.947280019562669,33.48363722636417,53.365891254302745,33.345633735553534,8,1.0,1
22.542,3.1612029622641837,2.069142399032458,2.917875473089081,2.8989423477801792,3.631602421341598,4.835314204886159,8.877622362453916,4.856419940954145,18.54180674777531,10.613898136452558,18.018283828307585,11.041478815023044,16.887331518607112,40.84190094326131,55.724016321685646,30.618212427568523,8,1.0,1
22.642,2.282014155339735,1.4591735130267947,2.701641393505769,3.3971120316990886,4.392289034896033,6.1772490060980365,9.311506006346882,3.718246410664716,12.422546811267825,6.244372683657623,16.520832102271918,14.250861201187027,20.881308118718163,52.61428990016452,58.131240478314126,22.8190345459009,8,1.0,1
22.741999999999997,2.1398334372775683,1.2422356809254504,2.0989347898473603,2.7968288558898458,4.1330796412761215,6.125320827410524,9.032343745262821,3.550336224407702,11.926857107928043,5.404279733274311,10.878687273463518,9.696323535057319,18.558018410559733,51.86828968347307,56.02972674367826,22.29094149721945,8,1.0,1
22.842,1.8657604814031383,1.7835254348445146,1.3582574832796763,1.4858579446169304,2.174989826938858,4.036013133219193,7.042753404104128,2.8347598280498474,9.484581583967374,9.13221638887025,5.779946058698322,3.5131428620536256,8.510452912152278,33.564695546397374,43.58853533181032,16.3840277501416,8,1.0,1
22.942,1.893881787109018,2.255613624213697,1.9985194746234602,2.4831225429915538,2.091499870539272,3.0800859811944514,5.556085088059959,1.867624935792899,9.548530727548538,12.775598699117197,10.226694050788888,8.343182082892195,8.192912742422703,22.554843915486906,31.230882546559002,9.175444969531162,8,1.0,1
23.042,3.0513370309782823,2.676396356264993,3.304473455036757,3.303714966387003,3.1270091985707977,2.500682692979899,3.503768902829086,1.9595328222004842,18.21060090408868,15.819181357866142,20.538993054357526,13.866594507578483,13.895841940754902,18.183755255201223,19.969462826792785,9.782179074227404,8,1.0,1
23.142,3.851845081763163,3.2955805942448193,3.7744799104875986,3.165776135647095,3.635686183050345,4.239194541358319,4.766552235644412,4.026453571020383,25.043843433320525,20.225471129489897,24.98131657079294,13.101348946615161,17.491290609372946,34.893650639430504,27.909789525799095,23.91046380106298,8,1.0,1
23.241999999999997,4.64941733244051,4.330329078283964,3.5629490563873825,2.866692284234208,3.4748283845433234,4.38701482359595,5.775706689479515,4.590713819035795,30.689522936374168,27.270219902399514,23.219420902951864,11.573189480604093,16.59344365161737,36.57327357167113,35.498117372483684,30.00977490777644,8,1.0,1
23.342,4.930360183081255,4.693003979931924,3.9111077655111908,2.2369293091778757,2.999483384736103,2.702135018645738,5.1458590563522,3.995552882050023,32.384750900232504,29.736775891390323,25.858823967134924,7.617085560918419,13.648459899573115,19.232971875248392,30.683873532332548,25.746432378835415,8,1.0,1
23.442,3.497501967572174,3.3102160285825155,3.5116966180544402,1.4564028231744215,2.2133042900441287,2.4535832037227197,4.756349625098,3.179804767314618,19.102144367156836,17.205363165277756,21.5316790213002,3.984478503485911,9.071661872713149,17.502754868328278,28.299611554697986,17.959679411409674,8,1.0,1
23.542,1.5055857746653647,1.1660653465116555,1.899576061327384,1.2877360086736926,1.580973688546652,3.0436740025855387,5.561312777563359,2.048346744027884,6.917496311823934,4.1059662066890485,7.562404649968107,3.0747654381370486,5.354113645466805,24.197635090297034,33.97401695157185,10.700527659158828,8,1.0,1
23.642,0.9762202302384506,1.1458893851850573,1.6835584938244044,1.3857180044186186,1.5755994588464515,2.9376715077009465,5.389461983307111,2.631832878591494,2.113185262016724,4.312927416933361,6.869251183691941,3.5515648115127596,5.277448306198828,23.202186568190907,32.17591506467227,15.012407262794735,8,1.0,1
23.741999999999997,1.0068355002600884,1.3788982524264406,2.214968127759266,1.8370794216453947,2.1701744843436326,2.802862630756592,4.127594338044395,2.7253136687822686,2.121977736154328,6.523921648093252,12.651822933072594,6.030251548604378,8.714323187451653,22.039093743883452,23.061458221149536,16.08435225559921,8,1.0,1
23.842,1.3182063883140607,1.4036083336461624,1.9544398449149172,1.8260162341689532,2.0948150911390226,2.3431165021357048,4.619823152767531,2.2338326871667546,5.216321043907079,6.681274990218573,10.53148704152097,5.989338932120125,8.270122362561727,16.621139410464167,26.28934221221703,12.354107445784535,8,1.0,1
23.942,0.9920210327077101,1.3301113167461693,1.4090748332678757,1.2969622985272862,1.7168992267512724,1.3233243168780322,4.532043541935559,1.715376065499181,2.529771557468914,6.0930252002001435,5.880088559028191,2.8657290221395493,6.298521666435384,5.618285081983157,25.472354669523078,8.133897452358434,8,1.0,1
24.042,0.5176305004136984,0.9511262653791631,0.7568292351444867,0.7154161057714188,1.3850197472957169,0.5674560404153274,2.3364317210128243,1.1266444542223164,-0.442514731293796,3.3184792251916377,0.5545956303505305,-0.22423891477620042,3.914940535364024,-0.7815799230316975,10.627923947870062,3.9672020611283694,4,0.5,1
24.142,0.5045846682570437,0.6584870856380508,0.37257339631366804,0.8666962013782326,0.8911371072897311,0.5388591845494342,0.9992441733539968,0.8040671471911165,-0.5337721455594547,1.2529142365782888,-1.7832804470031072,0.511162018553104,1.5402742822906825,-0.872552124825251,1.9191277696829203,1.5700177143216383,3,0.375,0
24.241999999999997,0.5559444034846436,0.6561755193789649,0.4237680672771416,0.9394677982059644,0.9463668082338986,0.5140107737677768,0.6708350484788389,0.6196533925549106,-0.1273673538969345,1.297935831727059,-1.3756006489113863,1.0534585439725839,1.8253678646404055,-1.1428862641261888,0.340314956406537,0.1941380991360836,2,0.25,0
24.342,0.6112662845148518,0.6062761494008525,0.41413049424106335,0.5832536387214583,0.7680849457614951,0.4819486174915763,0.9902955329939889,0.465357891019957,0.2115546515075431,0.8148287346786413,-1.508435098200526,-0.764539721455719,0.6078344123755417,-1.4410323766777857,2.6245804963178805,-1.0650819746742572,1,0.125,0
24.442,0.5243415033439704,0.35101988979307824,0.42338052265125464,0.5982660574148394,0.5247648326525252,0.532781747702617,0.8448600164269566,0.47358635780461283,-0.6500670548972168,-0.9251242370488875,-1.4641520669012134,-0.5942378047599957,-0.558879639044971,-0.8847088438890708,1.3182183771411458,-1.0322297053030272,0,0.0,0
24.542,0.5142220794665179,0.35096058060635943,0.4996297212428118,0.9157976536331567,0.6933476602140535,0.5119171615937046,0.5785256716881412,0.5326575066390544,-0.6712799786017143,-0.8862390427767511,-0.8899583459023415,1.0963661883586624,0.29222874329068504,-1.0398293033262564,-0.0781398929533736,-0.5273432235325908,1,0.125,0
24.642,0.5968529701250064,0.8264386572700625,0.9656386015420644,1.0783618686555003,1.2221602701928764,0.4351633830662866,0.7385887990605802,0.45105549473198825,0.148196190224329,1.9735687929995749,2.21856477426969,2.083382516784824,3.1272596928010485,-1.9205419650828077,1.1292342462121172,-1.1414976785642632,4,0.5,1
24.741999999999997,0.5539266230495304,1.1920759782923107,1.476916370840272,1.2483537268089826,1.609604158957543,0.5707477925863275,0.8282733762246115,0.739992995848673,-0.13339783259720167,5.07076892021553,6.7764145750362985,2.9302521227663583,5.699586557669355,-0.8709474320012889,1.7499766861879973,0.698533389033354,4,0.5,1
24.842,0.6005655827200634,1.0774468890635425,1.4032818564673013,1.2303970747628221,1.3203086216321018,0.7731400509546473,0.7477762165769847,0.9754929373410096,0.229333772481385,4.202390795809066,5.66287210402729,2.7930162844392408,3.483469626679695,1.5464210854225922,1.115407664451321,2.930158873071023,6,0.75,1
24.942,0.6256259337232954,0.8861788258147141,0.9782713159469733,0.8570213352398682,0.8731571187383024,0.8207281880582697,0.6926360619576258,1.057235884273698,0.40014838134206593,2.995910448620209,2.344430596677968,0.7537701343509575,1.2693459775181364,2.031771733457749,0.8168544318339557,3.5502673509502864,5,0.625,1
25.042,0.6522215730493655,0.7886091023277416,1.1495180063507358,0.6529295684392352,0.9523300212997772,0.8391873185682098,0.8686217744897643,0.9911527182724186,0.5405148244891123,2.1604115712273586,3.937793099122666,-0.179330590865962,1.83357917688422,2.122050722296887,1.9887630271561556,2.9617127286735374,4,0.5,1
25.142,0.5326692170518924,0.6946703909333678,1.108177308627352,0.8035148768170163,0.8536907143290877,1.0624592994039206,0.9860804462831059,0.906463926251822,-0.5851738270188129,1.6160163423943374,3.467940473231778,0.5708421339467078,1.2750542211240277,4.222742436629887,2.7951201388505376,2.3226989585723596,4,0.5,1
25.241999999999997,0.8759028549102932,1.4250320105808418,0.9478780975776713,1.14144905059997,0.9250871327660706,1.0451495717628234,2.2206732856703257,0.7759608667713055,1.206351016777068,5.8778977017453276,2.1593716737791064,2.2320845925996244,1.5102420401283598,4.068458981889168,9.25024047632844,1.0544888065310498,7,0.875,1
25.342,1.5704654463621148,1.9092528070003758,1.7213418000910718,1.823104107520701,1.8510274433043554,0.9447827233012243,3.5755381071660812,1.733775393814061,7.095697834987719,10.065696949648103,7.685555216484714,5.543360302871911,6.1752616459668825,3.0812705117924497,19.73457672761493,6.006065025410704,8,1.0,1
25.442,2.3272868361949333,2.3273395858731942,3.1690341077690283,3.2430897318867853,2.984444552807416,2.3701858896207115,4.792602103649918,2.3856763218663732,13.108714130289988,13.165152690822831,18.99910293155019,12.746677452166802,13.293139299859615,14.59233897782093,28.39817908014512,12.81898183704146,8,1.0,1
25.542,2.525192810578944,2.167176138592337,3.105217560384272,3.1625258298655416,2.8435829615779395,3.1819531756498622,4.777835432972978,2.0366044819710365,14.82745997504684,11.232438014911981,18.11308342485625,12.00510098785129,12.331505465644913,25.252857088928653,28.085858266801853,10.384994554658915,8,1.0,1
25.642,2.2539951596447154,1.4772078152565151,2.047943814491896,1.87601729078881,2.2922845507270115,2.934792442769938,5.599526283232353,2.5911301953762633,12.73240556950383,6.494702224384616,10.543496364085154,5.992983700839125,9.621362523484631,23.090535160587265,32.92987345551821,14.044503735076509,8,1.0,1
25.741999999999997,2.5607121225734364,2.2779319280579586,2.7699135934509003,1.8837534432313947,2.4380710068913607,2.313803541869382,5.448589863515653,2.6947236618195007,14.934253181903648,11.753205736131529,16.15263839558311,6.227643133719174,10.5681327566631,16.688904760275783,30.806228101327655,14.821625199250994,8,1.0,1
25.842,2.491336730689453,2.8128924379806266,3.0401618717895262,1.857443904449982,2.3704862722965,2.6512650168287903,3.4284011163016084,2.647647539045554,14.356834633201222,16.746249907849062,19.1438769801073,6.157158664279331,10.183173651736002,19.58199506526629,17.897742407149586,14.080945750291793,8,1.0,1
25.942,3.001469384662112,3.0683287171499662,2.9733914564563775,1.664957104000017,3.2384925921809162,4.594487349433818,4.6687730992707595,3.787676386466069,17.248212499622117,18.292538156982328,18.429791591294933,5.020041475554908,14.550840143659173,37.953136546034315,26.04599229368758,23.518383745307432,8,1.0,1
26.042,3.4902325095315767,3.6388868095645495,4.217212497469941,2.270667316559427,3.472492337554722,5.123962436856877,5.745905309511863,3.8018587458150255,21.49969759515802,22.157943628129896,27.393223764118687,7.834889031693734,15.764501747563074,43.757624715368664,35.048277630648094,24.04727589746765,8,1.0,1
26.142,2.615534482329281,2.7956197489807333,4.059855118322716,2.3564138688939678,2.154030394394135,3.609549198225519,4.590758411490408,3.124356955024803,14.475364102475305,12.525691459118361,25.740712616925897,8.532365715527666,6.202115454840909,27.466260561163914,25.654186995073275,19.122243513066632,8,1.0,1
26.241999999999997,1.3485999278056249,0.6585146032218949,2.136391669556857,1.3331024128108884,0.7035328521145704,1.7439689556977453,2.2389046764412743,2.3363767932514197,4.410810290541781,0.867108410179761,10.915266711396187,2.0881978956300213,0.3524837437033853,9.322255899673905,8.789935328160148,11.829512937719107,6,0.75,1
26.342,0.4245105629094519,0.5140589272942445,1.0722086910536608,0.3267720536743055,0.7524919282506664,0.646638305164984,0.6114761594984952,1.0737857085163942,-1.8940058606942713,0.3513094274445298,3.360923870447447,-2.519484366581914,0.747482081422435,-0.6908938369545031,-0.6507128789818034,2.8915886124583836,2,0.25,0
26.442,0.14930276668549233,0.4154635721102989,0.6782099294421465,0.07214330279218219,0.5866903905547276,0.27046002002101666,0.23921576632484498,0.5844305523228632,-3.2160191347939113,-0.4012291121445449,0.5523039491130548,-3.272782365344196,-0.260735583823393,-3.5052294346512176,-2.219966470391038,-0.06242666494183409,0,0.0,0
26.542,0.11600862295266248,0.2758669103538151,0.4650069169680476,0.05685326984446252,0.397870403447774,0.17534258966279917,0.21429901916332003,0.4340746243707831,-3.4925940630637045,-1.394431910290612,-1.1528926925571352,-3.365445565781301,-1.3503035145560502,-4.512820040867611,-2.4017117134903785,-1.2435819654602134,0,0.0,0
26.642,0.07115423122686934,0.17053124677883633,0.2826591213592245,0.0301162239522823,0.2527191122284693,0.08676346065750039,0.16398813090963388,0.28453746878474445,-3.8346235997658114,-2.1513778165865416,-2.5899939746898473,-3.5082894869106136,-2.19542867415153,-5.415676969446794,-2.7462248549616146,-2.380397048836624,0,0.0,0
26.741999999999997,0.03775420115473635,0.09054556544351867,0.14623587682123243,0.012275254881817396,0.14106642741208494,0.03140880776085911,0.11944631069906386,0.16825151846193306,-4.09216372892061,-2.7325106176366116,-3.6789700026670005,-3.5998243946061548,-2.848316702233574,-5.905286187289862,-3.051036307010456,-3.266259384743937,0,0.0,0
26.842,0.01509562118224472,0.035985871595997004,0.055671603656009656,0.008001118203223826,0.06207292586477627,0.032048851549766215,0.08114665179484479,0.08256349747251447,-4.257297284413493,-3.106730962430535,-4.3410610637871585,-3.615239403451761,-3.3076147968890774,-5.885263335949806,-3.313367259257543,-3.9266418641246665,0,0.0,0
26.942,0.010325879096789572,0.02300388912173452,0.042943214727542194,0.014703206816016667,0.023888601590132594,0.0506823562456699,0.04953502359863405,0.029438179032274463,-4.281134982799344,-3.168596954063486,-4.39969941805623,-3.578379580644286,-3.4758853238784937,-5.671940780193981,-3.530738126679508,-4.277789874608871,0,0.0,0
27.042,0.018281935270459966,0.04004472945607755,0.07225513119956463,0.02020061115181723,0.03824636196125711,0.05989610655136682,0.024923201751175735,0.03126401597113482,-4.21691131878369,-3.0391191473107635,-4.146490754372838,-3.5462161611193777,-3.395547321854128,-5.570242292441028,-3.702727179438361,-4.2557194919484695,0,0.0,0
27.142,0.024174936067018912,0.05157567147774083,0.08974392078213751,0.02361742399822345,0.05159979301337713,0.05990872069968461,0.009591058931596666,0.04854793672230901,-4.1673494350228335,-2.946672780291207,-3.993681774719719,-3.5274316479771928,-3.304302888512285,-5.569995502636916,-3.791507263710387,-4.104516866937462,0,0.0,0
27.241999999999997,0.027013791857328214,0.055124155294739026,0.09333077470569526,0.02576207291125703,0.053397768852198144,0.053642579875397875,0.013640073273022664,0.05613520408045462,-4.144769166233549,-2.9198655995980394,-3.963910365630241,-3.515824625760458,-3.29277861868115,-5.635179097294627,-3.767075865933696,-4.041028648904684,0,0.0,0
27.342,0.02770636410868417,0.053219167842897826,0.08762231580614412,0.027001951912608787,0.046917220460566525,0.04364084879910119,0.022492713525938367,0.054915110993027476,-4.139339193854537,-2.933923713204678,-4.010210491943746,-3.509148218407597,-3.332370108414402,-5.738560196251642,-3.6997707607936574,-4.050661146992199,0,0.0,0
27.442,0.02699535454832492,0.0478670214345666,0.07617271209464108,0.027696071917257314,0.03541249061114864,0.03194311617944263,0.028994589973121196,0.04799845819391236,-4.144840759877449,-2.973136136986043,-4.102425987342443,-3.5054352223110596,-3.4027826290970937,-5.8596144968544355,-3.652796889861147,-4.105106909977416,0,0.0,0
27.542,0.025456253932449466,0.04069059834011491,0.061860082646595184,0.028036624708920797,0.021577311323825493,0.020064529476379538,0.03301122656978593,0.03782680267235549,-4.15671463745463,-3.0254114933086984,-4.2170529220165776,-3.5036131723118134,-3.489081285360065,-5.983670130810379,-3.624561040445259,-4.184615063962171,0,0.0,0
27.642,0.02328879832704223,0.03289867616294951,0.04702434181528092,0.027678743510138427,0.009343432814631172,0.009708197696406972,0.03465845888302891,0.02675173999845056,-4.1734540510785125,-3.0819268790140133,-4.335210375930411,-3.5055447445483856,-3.558037290485811,-6.091454246137632,-3.613027736811629,-4.270487475040855,0,0.0,0
27.741999999999997,0.02052739351487304,0.025321898226112746,0.03337098079126861,0.026181246935194045,0.007834846955111545,0.004077574098375853,0.033914399683278765,0.016674973259076856,-4.194820416166239,-3.136694366728581,-4.443370039461387,-3.513664256643453,-3.56313843603935,-6.135344635946591,-3.618229522727314,-4.348008785869153,0,0.0,0
27.842,0.017086284731446237,0.018480014819698753,0.02203844877885028,0.02302196566843097,0.01212199152570708,0.006086511954875588,0.03063704724667428,0.00893159404501592,-4.221722771839394,-3.186011902295058,-4.532113183476269,-3.531093032139514,-3.5343853980403823,-6.1153161891635355,-3.641352306024411,-4.405446358370197,0,0.0,0
27.942,0.012548133794336698,0.012651710258043769,0.013954777248176075,0.017182854657898393,0.011084440117246616,0.006464187094116912,0.024110134936384586,0.0051077017731261986,-4.258662267543859,-3.2279345004968647,-4.5934323742365235,-3.565305404344174,-3.542730335110354,-6.1101528080852265,-3.6891531068496723,-4.4301033333385,0,0.0,0
28.042,0.007069474705538987,0.007941117776936648,0.01003325187690123,0.009565239231694922,0.009977762560714028,0.004894156037490695,0.01451042030938544,0.008297910199212182,-4.304103664279173,-3.2617962604471344,-4.621479586951941,-3.607764807089926,-3.552101101046913,-6.1274804331474595,-3.762106343865752,-4.410868447008359,0,0.0,0
28.142,0.006565474038331085,0.004330690995985121,0.011384529088539992,0.013987444433712123,0.031212452971938438,0.013798360346954,0.011911645939919283,0.018759219711999394,-4.308739903175367,-3.2879577780094613,-4.6121945675419855,-3.592257357542233,-3.454030994806491,-6.061863999952129,-3.7792117261840152,-4.338411515212116,0,0.0,0
28.241999999999997,0.01707706052253924,0.0018101328388649834,0.018421615348826404,0.03497277878553341,0.07117951160163609,0.033532431211243864,0.03187317721240596,0.03733565596062594,-4.2361517053572975,-3.30571380986614,-4.561252938764704,-3.4857744352203683,-3.222964693272999,-5.867235784293035,-3.660806134202828,-4.20193978526976,0,0.0,0
28.342,0.032742348526267784,0.0009234403215011097,0.030987673460377542,0.06545149767050294,0.12942192519911055,0.0627523873728138,0.06298664539867882,0.06522470824979189,-4.113781591251402,-3.310223874564535,-4.465549475994587,-3.321400659397323,-2.884484832932802,-5.572552760430622,-3.443886272721039,-3.992596794769315,0,0.0,0
28.442,0.052885876038897654,0.0016320669663010571,0.04914494294609599,0.10511019193790888,0.2069943303535844,0.10176162841564465,0.10337799551440319,0.1031261431204971,-3.9591484229083016,-3.305093599234632,-4.324228145307271,-3.1099477285101,-2.4337637070004745,-5.180119277685294,-3.1668253725024487,-3.705827126062902,0,0.0,0
28.542,0.07767839200371295,0.0021792579360330726,0.07289497667461606,0.15432653475781835,0.3044989479862984,0.15080151455262586,0.153219789241159,0.15131070955142376,-3.7694235666714677,-3.3006502425179165,-4.137777227947811,-2.847816772286263,-1.8663770090839402,-4.686291231973821,-2.826235063789094,-3.339873976734637,0,0.0,0
28.642,0.10678015662776141,0.0023692643225217904,0.10167681908786062,0.212364369084303,0.4202808817565041,0.20899502648139476,0.21176090376576323,0.2088999172328133,-3.546335469605318,-3.2992080899939977,-3.910516570764469,-2.5379837575166713,-1.1904965262103486,-4.098559505986884,-2.4255583957298192,-2.9007211653728042,0,0.0,0
28.741999999999997,0.13904113421083986,0.0023077700527464958,0.13412623480024777,0.2768713426582028,0.54944995302301,0.27386704541789264,0.2766447148961326,0.27338374261552323,-3.29838335696704,-3.2996623296218757,-3.653234885388651,-2.1926323548446884,-0.43406551022940576,-3.4413766491953743,-1.980354028462174,-2.4072468816943657,0,0.0,0
28.842,0.172425960480345,0.0020843963035292435,0.1680209795096278,0.34372666273979285,0.683599950242438,0.34119723791673634,0.3437637827811221,0.340498643787344,-3.0410487267766246,-3.3013014988122187,-3.383564520845982,-1.8336345795853988,0.35398833941022667,-2.7572168533280124,-1.518509700946882,-1.891954605396366,0,0.0,0
28.942,0.20356790947593906,0.0017717392912119146,0.1998442421867498,0.406155535648836,0.8090493381953818,0.4041361482221642,0.4063617710859166,0.40335235903864364,-2.799975075825243,-3.3035825679491504,-3.129242499382653,-1.4969574496541886,1.0941477993112068,-2.1149190683416803,-1.0859534118872973,-1.4072397991552195,0,0.0,0
29.042,0.22738614676145824,0.0014248399893252689,0.22440379793231283,0.453964638136348,0.9053134900717973,0.45243933051573737,0.45426528554510937,0.4516618219249921,-2.6145333861816793,-3.306103112166565,-2.931830036077033,-1.2376355206606036,1.6653990138888595,-1.6191441178261354,-0.7530427277024483,-1.0325206067124777,1,0.125,0
29.142,0.23711560938373244,0.0010823658245164083,0.23485711897941175,0.47360106570218835,0.9452183913736689,0.4725215904448862,0.47394004185558825,0.47180973127105374,-2.5382393882470526,-3.308584125176803,-2.847194466849831,-1.130359487603205,1.9039109255779567,-1.4115394380623438,-0.6153315857588421,-0.8751091878284999,1,0.125,0
29.241999999999997,0.22438153342415787,0.0007695888309506927,0.2227776915992024,0.44829939072749037,0.8951875408801122,0.4475987893348658,0.4486372344570954,0.44698587027492753,-2.6402834493378275,-3.3108454409581953,-2.947155606614492,-1.2716193027670712,1.5983027924550932,-1.6748439082235496,-0.796316190795783,-1.0733235106139842,1,0.125,0
29.342,0.17827595941299476,0.000501596165530765,0.17722715784649598,0.3562339515715947,0.7115427457207373,0.3558359326005071,0.35654340553952724,0.35533723535270384,-3.0300445745117566,-3.312781557115732,-3.3448313331448154,-1.813868688509364,0.414865219842795,-2.69755162964708,-1.4911964550764785,-1.845375178266331,0,0.0,0
29.442,0.1048340344269357,0.0002860596320739625,0.10428699703066129,0.20949382417350076,0.41850374347627495,0.20932027392013636,0.20970545296586854,0.2090046907294849,-3.640021732402168,-3.314345825910248,-3.9699297563675486,-2.662871143890228,-1.4398012675285985,-4.301515297493476,-2.5798496432200415,-3.055784987804869,0,0.0,0
29.542,0.13822892618055663,0.00012813502246076521,0.13822903947948753,0.27647594154476834,0.5529548031360465,0.2764023671776291,0.27636757432184633,0.2765223013816731,-3.486389158934345,-3.3154872726364095,-3.8081599468507124,-2.4480464856693906,-0.9676704846861715,-3.894359606729568,-2.3062883204647595,-2.745556704659654,0,0.0,0
29.642,0.37212253777217136,4.577043960869891e-05,0.37205978688422714,0.7442507150428657,1.4884499816973034,0.7441265439302982,0.7441214278098595,0.7442601612531224,-1.8479999001036522,-3.315941545344901,-2.1172189959970575,-0.1651816810672228,4.027089338474971,0.424185745222187,0.6178090958828086,0.5190020905088669,2,0.25,0
29.741999999999997,0.6847112055575518,5.950220275455097e-05,0.6845706609838368,1.369402483514503,2.7386845845999837,1.3692568668303626,1.369308035789508,1.3693403375169828,0.6616811562892596,-3.3158352673294935,0.4717200626735444,3.331313264742403,11.676360946328307,7.039046062833459,5.097811844326275,5.517554976552522,6,0.75,1
