t_center,rms_emg1,rms_emg2,rms_emg3,rms_emg4,rms_emg5,rms_emg6,rms_emg7,rms_emg8,mean_z_emg1,mean_z_emg2,mean_z_emg3,mean_z_emg4,mean_z_emg5,mean_z_emg6,mean_z_emg7,mean_z_emg8,channel_count,frac_active,global_active
0.158,0.6025257387677344,0.6467198877891719,0.3924812461962067,0.9081933944416956,0.44352361479332914,0.6118757881328601,0.4733386769233691,0.6439640814331534,-1.4359048336410187,-0.796128743292323,-1.5415807642623702,-0.4781766301285392,-1.1602525504881722,-1.2112447229622796,-1.1838369135976639,-1.1876667542623722,0,0.0,0
0.258,0.579427860336908,0.6986807428958198,0.5918399982437541,0.9217558501429893,0.5646096028572983,1.0175897309592103,0.9099434374463155,0.7513078568989053,-1.4940729006853313,-0.6518064111040186,-1.1188855102098025,-0.4240268702151061,-1.0104820441617552,-0.7342417540453361,-0.6693415583008475,-0.8659724554097874,0,0.0,0
0.358,0.8484358681357204,0.6745183529253012,0.8838321618802487,0.7553711942465844,0.6305808466660356,1.0187940611074473,0.8974153900128514,0.7861689596120145,-0.9375275467168317,-0.7117502884749649,-0.4838229826710184,-0.7532029444269661,-0.9141617658403256,-0.72275028020919,-0.6887057396289837,-0.7908192079843978,0,0.0,0
0.458,1.0269206098797636,0.8412808013784882,0.8625944076766895,0.6975141633778453,0.7931999505167621,0.7585614372479121,0.5245822843008192,0.7499161669217558,-0.42870299268242934,-0.35450724806202316,-0.5635529956999845,-0.9222841522954095,-0.7237923205092749,-1.0018900327602438,-1.1115175443023575,-0.9230806193214726,0,0.0,0
0.558,0.9191549714036996,0.9592244130162385,0.7523378179922744,0.6391315513979051,0.7379329314660226,0.7374418187986234,0.8184342534883594,0.514566510607496,-0.6801469846632249,-0.07940123209248537,-0.7965341793315593,-1.0354777532542567,-0.8306585662003192,-1.0194512115555676,-0.754941515544101,-1.5336984848192454,0,0.0,0
0.6579999999999999,0.8711298493673265,0.9240308052202265,0.9241324172205098,0.7716804845047819,0.7411569173205049,0.7822569533455214,0.9062216611829623,0.7473464243144843,-0.7884326440976852,-0.16840605728284014,-0.39894185748588046,-0.6994010194919461,-0.8451982081314625,-0.9696957175890975,-0.5907175418029109,-1.0750776314442176,0,0.0,0
0.758,0.9435266936715899,0.6452298663974719,0.9869804272823818,0.846983019135156,1.207864307513819,0.8392765730622198,0.7221003559174336,0.8038505730891072,-0.6370438573460683,-0.8960476663469736,-0.2316976018771902,-0.5252518778086496,-0.17504188825225805,-0.9022546980327103,-0.8447771613575213,-0.890114387679888,0,0.0,0
0.858,0.898428025346473,0.5864504985257463,1.0153401566904776,1.0298154456112514,1.2703635326622662,0.9249394473535317,0.8747159255288425,0.4521629065031708,-0.8547868166656221,-1.0910576986070677,-0.1781445788079316,-0.12262094348965,-0.05379617227967198,-0.8038637165354305,-0.7155179591562282,-1.8516248639764175,0,0.0,0
0.958,2.6256212701671244,2.054113307490641,1.8287792363211854,1.6542731897153204,2.0185752145125657,2.791925806182086,3.3521729710084984,2.2773172037112537,2.286499638344435,1.504867302612366,1.3146849433727326,1.194048295733839,0.6893996862680992,0.8078016506783529,1.7991504601389443,1.20727555514069,2,0.25,0
1.058,3.192866534798062,2.4579549475477345,2.047017944295425,1.9638823679680546,2.7964257307384344,4.692796727038533,4.51077562082326,2.8977896062019983,4.6083005074073045,2.9253030862449667,1.9297338773676405,2.049700143873653,1.9417493490383868,3.4217373098892616,3.9701824499597422,3.8654052838786206,6,0.75,1
1.158,2.1291647534893032,1.6864749433410093,1.5448454808377639,1.7351002794086268,2.5114318005519167,4.3028549291528115,3.3236669532694894,1.9379714960344834,1.9278988425820476,1.2849139829810245,0.8543613926446374,1.517041327787172,1.575758069005577,2.94838996647351,2.1360996324180532,1.3944322952536614,2,0.25,0
1.258,1.3779195752629658,1.3704423591874206,1.4897304710263772,1.4959235981278307,1.7205426956317502,2.486744703782984,2.0873834295380638,1.3218082814474865,0.44868043403899127,0.770607124701261,0.7673265997629122,0.9312591253933139,0.5208511649069147,1.0440065059520283,0.9527670609014475,0.41663359038215686,0,0.0,0
1.358,1.364736361388257,1.28325295062428,1.1552501687918009,1.1631228869502277,1.1742671808736365,2.101896883822058,2.055159691848845,1.421766233301129,0.36359929923606826,0.5341723618411045,-0.23290205732413885,0.07399183046451085,-0.2352080127804988,0.6037528007774534,0.8526433820756679,0.645143500502276,0,0.0,0
1.458,0.9788689734347243,0.8221678356538977,0.8085876743216689,0.768898909278869,0.7281182856627855,1.5952685550626178,1.155902064080642,0.9443261035157672,-0.8419678895203896,-0.4397265785756469,-0.7596506366521533,-0.7081011445242446,-0.7967929904310228,-0.10609499644289477,-0.5227858348015604,-0.6706149524843406,0,0.0,0
1.558,0.8516040042176195,0.7057872061711801,0.9835158678359253,0.608467978105554,0.592616196461726,0.9177191786649975,0.4692041988107758,0.9959341919047496,-1.04214533912928,-0.6390250534098161,-0.257629475116029,-1.1199727720298482,-0.9627820171171484,-0.8250782162391186,-1.1752115476504035,-0.5540359531504515,0,0.0,0
1.658,1.1045906742772271,0.7658842311751849,0.8775334308011917,0.44936725768450697,0.6012864589800876,0.9310294834864307,0.6590146789693311,1.3942856852460563,-0.24663636282716195,-0.5073037339537355,-0.4711543680549206,-1.481637687629987,-0.9485950163854685,-0.8020444733435991,-0.9217896000231119,0.5878463200606647,0,0.0,0
1.758,1.2008742825986325,1.0104589821625392,1.152754599833398,0.6554144581278571,0.6398058703258822,1.398305014973025,0.8506606395170069,1.293725804864469,-0.0034662611916259135,-0.09669074136868086,0.022144946318351934,-1.0778010794306847,-0.9043148077347085,-0.27901490314558025,-0.657441015792936,0.36090739431011754,0,0.0,0
1.858,1.3470875214519893,1.4187663151198615,1.558468724722896,1.1798927684612077,0.9410700721351547,1.4039236560720532,0.946552257910131,1.2290723888142605,0.36518376599013996,0.8198406848503572,0.9543891609920347,0.14068828708785336,-0.5291246445948693,-0.28740105904375196,-0.5258270995055455,0.24543364034170034,0,0.0,0
1.958,1.3953500018088512,1.6463657819811037,1.4293845943333945,1.308093245642287,1.250639574036741,1.015319017469932,1.490302787106663,1.3456527091198773,0.47169415911296514,1.3770460173954389,0.6535754512173468,0.5181357259192803,-0.07241449175163794,-0.7174101930068447,0.09359329733852752,0.535992153504051,0,0.0,0
2.058,1.320484285218789,1.8290832035745057,2.0159954263917155,1.5883422622428331,1.8979290855180584,1.7131930345605866,1.7724649227775457,1.207948300912464,0.24899158404406752,1.7576612845778636,1.6609033027405509,1.0241720772203031,0.6976895704256341,-0.03797328196016767,0.5586300454802317,0.15552404110979703,0,0.0,0
2.1580000000000004,1.7020550038949935,2.112697407136474,2.5468259246165363,2.145820944836419,3.0969518862983856,3.0299697805806844,1.5354057534570194,1.5146830525048407,0.860599440643014,2.321711112574378,3.1739684545471407,2.4329279468513807,2.300241339017066,1.588156479002511,0.253093562983637,0.6410553504080027,3,0.375,0
2.258,3.2055550590446753,2.6589025322919104,2.6795647659733093,2.3725967837647226,3.6471379982894243,4.737425964314919,2.3024163250736978,2.964665206556334,4.316471747891374,3.4350825787242143,3.4545910821505843,3.034165391068351,3.179020804762862,3.5849588907947934,1.0418519660931218,3.937260358491919,7,0.875,1
2.3579999999999997,3.285683307478723,2.934848498079491,2.812461900781075,2.205831958832475,3.1404353020755966,5.13905059252873,2.6123928521981212,3.2527375021436478,4.712859644890473,4.033490266802143,3.691212391042627,2.5844872067890687,2.391574016986706,4.049053437304872,1.5298713896681726,4.932891169799845,7,0.875,1
2.458,1.8508656686323481,2.078918166109387,2.0076139571269294,1.755724036019846,2.576284396340425,4.062397745630493,2.0674861782850473,2.0805400483631553,1.2691956104733124,1.4699176704440973,1.3224370889199306,1.5207890753275894,1.6592180573284954,2.720439550752752,0.8772216331223343,1.9319054104562317,1,0.125,0
2.558,0.9223894922763207,0.6619375678425347,0.9101333187897528,1.1706599872452845,2.405288744624245,4.2049117374094145,1.9762289408068914,1.141338052818068,-0.9379687966724486,-0.7876672010824619,-0.5009434698621186,0.06260034801084126,1.4473201559381477,2.970727638521395,0.8352969905638711,0.050251138457187795,1,0.125,0
2.6580000000000004,1.4415412374988925,1.2730036984846822,1.7995299442845984,1.4919591681082407,2.588703294092062,5.0446928787919525,3.4301287285690565,1.910306389732074,-0.1289655945665753,0.2919113224520593,1.2034690788538687,0.518125335035179,1.661252417255925,4.121328120113288,2.4687509853359577,1.4343073092921073,2,0.25,0
2.758,2.8743054947622175,2.3394338402739496,2.7106002240984033,2.7951105908682545,4.144032957768724,6.600075317630594,5.031229849632267,3.5419777645249804,3.6804544415686045,2.593037610419305,3.4332471293344726,3.668779737857091,3.5731190330289975,5.766096953661963,4.841307464803287,5.432371683361139,8,1.0,1
2.8579999999999997,3.3701678635916137,2.81474019434527,2.544430241883362,3.217985436361422,5.052848278473921,7.755052556142209,5.44030041373624,4.351758289653713,5.1032398462194335,3.711649077580266,2.9648509218757098,4.821656612549315,4.968345827809158,7.134671874118172,5.421944825009253,7.553228612218847,8,1.0,1
2.958,2.289199928822899,2.0101001780532486,1.4305457379782014,2.2334619792833528,3.840221907522063,5.804012263760249,4.068670677272135,3.136310312346486,1.3837566677268962,1.3471486833702975,0.35394825070090485,1.9689400757891682,2.942320870855279,4.080111738803319,3.1627408206472927,3.1542853687212684,6,0.75,1
3.058,0.5889820355702214,0.5997646062762527,0.6620797625724136,0.7257749574639418,1.5753276318479486,1.9175243536341562,1.83999389576302,0.6531834615415262,-1.6172518471937845,-0.865843910119412,-0.9360126300549421,-1.0875612473551732,0.007329718675096774,-0.07324154508722905,0.5226088016004574,-1.2824693183727711,0,0.0,0
3.1580000000000004,0.7144249563129539,0.5092263022062442,0.6798388630402853,0.3320014887959072,0.5025679498302666,0.4636498295321327,1.2828105973120618,0.6478209315363757,-1.245853002836587,-1.0510091276656301,-0.8947585798108749,-1.7900886189261314,-1.1509271126071314,-1.393300699945647,-0.08501988280955113,-1.1645115403434416,0,0.0,0
3.258,0.6431973815307224,0.5764553070703643,0.7711362223675275,0.5140841140592993,0.44382403287417954,0.44644444529662414,1.0684631434829357,0.6062142306328222,-1.40876378108164,-0.9260916648281328,-0.6970272782722133,-1.3554762644696021,-1.177174951675347,-1.395378812748794,-0.43231099035463505,-1.295011739612003,0,0.0,0
3.3579999999999997,0.5971119927780625,0.9143499736148688,0.6878310238742906,0.5280432089878973,0.7287645237002858,0.561359127450336,0.7202690413237484,0.559781514211953,-1.5022841602141865,-0.259621967156778,-0.9377093719059222,-1.3164026873478263,-0.8353020368376687,-1.2321453615534423,-0.8308509296173732,-1.4269708939258883,0,0.0,0
3.458,0.830939407251032,1.0141456508448432,0.49110059225829494,0.8527300805796775,1.0017872362646387,0.7558925866241581,0.6933159221466201,0.7361849161175722,-0.9062434931645568,-0.05995807499007535,-1.324334877307098,-0.7335738473533602,-0.4339540599593857,-1.0367855512793267,-0.8728939227599378,-0.9518453557329123,0,0.0,0
3.558,0.958514393192217,0.8214955196502032,0.45047004489784365,1.120748483631434,0.9970106270562704,1.3018931564663383,0.6670084283252184,0.7392792835845337,-0.5639581953951401,-0.4526383025774255,-1.4073206214496516,0.07969478400520638,-0.42387886323099366,-0.4165881062248811,-0.9031878921199274,-0.9022066702008447,0,0.0,0
3.6580000000000004,0.8322803529689806,0.6157478835148856,0.33720766899792537,0.9206138927460363,0.9838810949635672,1.289163542050309,0.8961948348157279,0.571663529092135,-0.9198683098019952,-0.8383903639986887,-1.7315141820255477,-0.4302475959973032,-0.4382523231065846,-0.45472834305858945,-0.6240608640149498,-1.352822903104656,0,0.0,0
3.758,1.0122472947927217,0.8660475834785649,1.002601453313178,0.8449601119023182,0.9956827361615264,0.7816485608451389,0.9350302783153422,0.6277760053309067,-0.5882408992337129,-0.4311799918649002,-0.6853863814821427,-0.5624014661746424,-0.41820981115705563,-1.017244645157195,-0.5604845036161594,-1.2789154384329424,0,0.0,0
3.8579999999999997,1.1585888319142388,1.081555444586992,1.3954268233521838,0.8084271703811784,0.837556604800727,0.8407387757582984,1.0107777251470904,0.7456318390854502,-0.13071205787387946,0.1382351896709093,0.6362451248913847,-0.6851290999406048,-0.6402259041859718,-0.9231747198345005,-0.47666390709865675,-0.930047360352001,0,0.0,0
3.958,1.4622271030089327,1.7083063669888947,1.780939884368203,0.715683910239935,0.9976525658848842,1.7054952106882406,1.7042877244938857,1.0361598381842139,0.48008991875582757,1.2350706070598685,1.4358863393657504,-0.8784988196845749,-0.46904113432332306,-0.03260748293456014,0.399556354684663,-0.3518443269810029,0,0.0,0
4.058,2.7886246626460993,2.6958273165392495,1.9814561743859171,1.0301249895843407,1.382682571210957,2.2698843115371505,1.997095056013575,2.412533515730397,3.433925303680442,3.4421847005410426,1.9341528123511655,-0.1625452248640729,0.059914627103884344,0.7784420109323383,0.8575050936217288,2.5323350065118744,2,0.25,0
4.1579999999999995,4.519939595299322,3.4460677556197075,2.260355804636145,1.9399182746349928,3.018143510573655,3.5483453376383034,1.6006259697016498,3.8825953103015105,7.7836812454679585,5.161024309318058,2.406248732673923,1.7459089594696824,1.9289079054456422,2.0409424541006027,0.2575703272666701,6.481652960657749,4,0.5,1
4.258,4.509009007554387,3.3904762364316023,3.2946065440764576,3.1109381943300587,5.75335155734795,7.9887599072692215,4.6315049980197225,4.269658503263228,7.796297177954389,5.030596872010047,4.612190585845683,4.592220943231899,5.649271522588588,6.774490035705743,3.0713331942141684,7.640929999151804,8,1.0,1
4.3580000000000005,3.0149736085609016,2.797832388839264,2.943367701542187,2.919607683931007,6.301269154283452,9.535989893762828,6.96694314706327,3.892467598883173,4.273232564999902,3.8003952606853866,3.4311836245727685,3.8483990897208393,6.554015517108269,9.316309293461206,7.218210699271696,6.732068281602906,8,1.0,1
4.458,3.722536613037397,3.165879785041198,2.586884103461074,3.8759002000769596,7.142605308493777,10.900526210638734,9.49390446838091,4.944007684980647,5.709444805337526,4.4789491734659705,2.7336477033729154,5.418065885117878,7.547253078183708,10.796389287131307,10.492403631035959,8.920177695204085,8,1.0,1
4.558,3.9109431808395967,3.232707814660267,3.1519555957743104,4.606364295703217,7.090493541159359,10.336765155180734,9.778333742703758,4.990093546888118,6.360827225422323,4.599802792112295,4.352525251931552,7.874879373746433,7.4577250128278525,9.858447663700625,10.89203882032839,8.906940747877655,8,1.0,1
4.6579999999999995,2.440390101350787,2.1454961507704255,2.3110906197189323,3.0237737632632764,3.8888047712250025,5.380452226735134,6.271553640483118,2.930741136534602,2.7236849017699702,2.1256383789032958,2.2915215270583174,3.715894202304341,2.781325890997215,3.8782053925730544,5.711474371528867,3.5627084166530016,6,0.75,1
4.758,1.3929603262606067,1.0875148016484677,1.1767903741968324,1.1289129623157472,1.4384409362971027,2.1495173425057836,2.568356680797157,1.1494252497404795,0.2558097052570853,0.10666056840088611,0.14335455729978047,-0.1033479780795151,0.11991624315130485,0.40306613471185326,1.0976495174913996,-0.21185823467137727,0,0.0,0
4.8580000000000005,1.0152169391932704,0.9672133094657247,0.7485851747384807,0.9574745291263359,1.077567675816306,1.1412551511785431,1.0590463996768018,0.6043459535652858,-0.459331582447818,-0.11334154110828285,-0.8971350198214605,-0.3872349293323904,-0.33866105657562345,-0.5578783675906867,-0.37726298595105096,-1.2303783657707315,0,0.0,0
4.958,0.7879283741384397,0.9643301562583875,0.48560232556677724,1.119160098594896,0.7459925151532667,0.9303227048902223,0.8549217510871817,0.9438738728707584,-1.2834421702888188,-0.13802914460535826,-1.3357414555368625,0.06442561015029465,-0.8235032084303076,-0.8441590397972693,-0.6787023187336171,-0.541483912191665,0,0.0,0
5.058,0.3265817797347783,0.6722782548695718,0.5501775581804731,0.8949814171169935,0.5682723130533776,0.5514783732569405,0.712358607842728,1.1206162572962484,-2.134265509273214,-0.7405165133479849,-1.1735536359296626,-0.4742502251199393,-1.0033415440984554,-1.3074789100274316,-0.8436141551473046,-0.05078133256714044,0,0.0,0
5.1579999999999995,0.5018342676899917,0.5202466360911806,0.5256006050057528,0.8526112524105166,0.586861777980375,0.5567360105010924,0.8989393881526032,0.7875917695064962,-1.7217664831595105,-1.0099215697789377,-1.2315931570816714,-0.5439674278796455,-0.985050237318954,-1.3117435269271347,-0.5970880878316962,-1.007640122722097,0,0.0,0
5.258,0.6162959168696975,0.4670163081370266,0.6533574956162151,0.801443002365674,0.6509968655516645,1.0074622125217871,0.9402601420303692,0.4287972689663669,-1.3950419953188704,-1.1289436302600224,-0.9800968794569778,-0.6952579623626304,-0.9270451514655468,-0.7778722149577374,-0.5315753634535905,-1.6540654004779132,0,0.0,0
5.3580000000000005,0.701291115308514,0.4806845905763195,0.7656450338119348,0.5000435897125554,1.0497446457218589,1.0562686836570756,1.0975774674138226,0.5293778011220083,-1.2180019306533194,-1.1133345665440164,-0.7004815151742625,-1.3520726677198391,-0.4132140546277202,-0.6644698341898417,-0.3519048728014813,-1.4110564782276502,0,0.0,0
5.458,1.027422103257715,0.7088414891500507,0.8265281578565078,0.3766391692097147,0.9953738537926422,0.7261258047258919,1.1904132524171562,0.5779444703879121,-0.4758217921092635,-0.6617210118910701,-0.5777905090266191,-1.632223764855095,-0.5102596646974448,-1.0562489744646122,-0.20743021227815928,-1.285617532487714,0,0.0,0
5.558,1.254651081321364,0.7597037448278993,0.9781395834661453,0.8175491493457827,0.7111511636657819,1.536112865387917,1.5390485504769567,0.9044647546018411,0.12015870613331647,-0.5245268270871949,-0.2504435621886,-0.8855251297075176,-0.8505741493788296,-0.3428968986490444,0.18864806457181074,-0.6265697296078736,0,0.0,0
5.6579999999999995,0.9188953161046031,0.6338440116839575,0.8982389789427692,1.0789021683146907,0.988269512654385,2.047796804026135,1.9507779458661005,1.1509610758859985,-1.1528546373870712,-0.7794812400213325,-0.4586792691866236,-0.08043283513545108,-0.4718040430165301,0.5016710928916145,0.8107561774421843,0.08648922185926158,0,0.0,0
5.758,0.9214739286981154,0.856774827141141,1.0765238557221655,1.4962812905671776,2.3340782484687135,3.15957101872805,3.4526741070725833,1.4938047075251009,-1.271169728600913,-0.37927105347156964,-0.14528763506598522,0.742533172165583,1.0309344607524173,1.593270240540577,2.4107976702106586,0.7952195971717001,1,0.125,0
5.8580000000000005,1.6131756830562602,1.104573973977021,1.3707721102223358,2.0084664235666736,3.078070225690899,4.436563130655404,6.4348323262372205,2.8192532348732366,0.800836095799608,0.19991824023950044,0.6013414660752441,2.0661851245965925,2.3260556098808474,3.282796143361434,6.383366820012556,3.7057306453558114,4,0.5,1
5.958,2.419754334886816,1.5996372455364147,1.8177985604312992,2.3086091371583204,3.8562072836879904,6.028329753224733,8.835570310700259,3.9684054701741833,2.8144181818457077,1.0628300212565969,1.4949782841971477,2.856653013175607,3.360094208743147,5.004942639754857,9.963588712754596,6.801842341428008,6,0.75,1
6.058,3.6967012633987375,2.4821600600727773,2.2557363946258504,3.060798414187942,5.183388208845685,8.915372713136161,9.312604292496626,5.112715522874157,5.751652360018587,2.9195704108099036,2.4913001492515905,4.409825248544346,5.078495477235694,8.37038777378839,10.639298267475915,9.415334890624441,7,0.875,1
6.1579999999999995,5.037053731951618,3.33865618848252,3.1546088960670873,3.8678856069410736,6.71271704297837,11.008300883913382,8.487773495059637,6.561234132737689,9.157740463040286,4.877517243226058,4.278745670908101,6.370106573920682,7.095378417867634,11.212061970780368,9.567933428412877,13.00452249140304,8,1.0,1
6.258,4.756127807321633,3.0927881927782397,3.2100705595122125,3.5657285990152054,5.9483267443730465,9.25742120973553,7.318647242890504,6.4370741329233825,8.376835442069499,4.247221622959499,4.480681785083786,5.632969874896964,5.744127984560517,8.56822317540793,7.985104133719567,12.700859429453168,8,1.0,1
6.3580000000000005,2.738057928228614,1.9017945552045943,1.8910926511457458,2.231979203643051,2.7680760480794055,4.861747249243354,5.278647330202399,4.120817903172048,2.7563051678607455,1.7538968597630216,1.306624264553697,2.3040232500813125,1.4072889064263454,3.4063751160545044,4.861312274962418,5.956347359380173,6,0.75,1
6.458,0.8548643685197438,1.141941184270103,0.8687489539106775,1.054591562090839,0.8778008880886956,2.1696959684543047,2.7225512815645225,1.4349482986032882,-1.2423483221493663,0.22191081136565574,-0.5874666829101279,-0.1761998183648668,-0.7233147808196341,0.3323963204762706,1.4794124779524398,0.1631477739971162,0,0.0,0
6.558,0.5057724608287643,0.716599005494524,0.8014525825741114,0.5975989120354178,0.41919429749504694,0.7434600066917063,1.8668069072250018,0.9354845655011812,-1.7049972864342755,-0.6608543262235788,-0.6363438521563853,-1.1682337544718573,-1.1943096592436622,-1.08969990380259,0.6281191860166258,-0.493291429587587,0,0.0,0
6.6579999999999995,0.9445086510087519,0.4823325300859067,0.7500962916621453,0.5396365777328693,0.3435398124406148,0.5291046786509574,1.6991582872727546,1.008652562221727,-0.7442888509267315,-1.1100726570778998,-0.7528956888476688,-1.2999085428330772,-1.3044370730167227,-1.2699343648001247,0.33188977925315744,-0.2723243079785644,0,0.0,0
6.758,1.3094917327255065,0.4050545512689308,0.5455949189763074,0.6005002859588393,0.5193842931930316,0.7063928782770037,1.370196861974818,0.7448923146159102,0.2185552339998318,-1.2658388283590398,-1.2080390925717963,-1.1672577518078668,-1.1395576738707582,-1.0702828079455233,-0.002454019971938587,-0.9298571164938864,0,0.0,0
6.8580000000000005,1.0971000848857964,0.6051510480909339,0.4698160014986913,0.44493699961973904,0.9310991428446006,0.81453230845715,1.206431292641986,0.725893741506128,-0.43814392353584514,-0.929540034405481,-1.3579042711461766,-1.5671742745418,-0.5614751730242846,-0.9422674440370049,-0.33524144169244807,-0.9920525358289354,0,0.0,0
6.958,0.5093384425724281,0.8077645260665307,0.5562313328502309,0.4337683040155751,0.9493635440831056,0.6399670984535595,0.5180903192987093,0.9041481052345531,-1.711307598347957,-0.427759541910164,-1.1700049809078272,-1.5483044408930187,-0.5111066609959549,-1.1913998253244182,-1.1848450416983218,-0.5394065703996813,0,0.0,0
7.058,0.4819141076407908,0.7702797058944355,0.5730767521270436,0.4516270648448555,0.9844727311324756,0.6608382268851815,0.6260177255445959,1.0623316052699436,-1.7745578238743693,-0.5010143855125234,-1.1315553474897704,-1.4784744692295464,-0.488990082923156,-1.1624906009609963,-1.043236089758531,-0.1761443574638867,0,0.0,0
7.1579999999999995,1.2533008109712662,1.410256973199982,0.8848701078500609,0.5416726962921841,1.0525684972914182,1.145997282410413,0.8307681752489992,1.782334137818459,-0.26483672815091575,0.5326435682532822,-0.6239084603258706,-1.32309407003341,-0.3779347013459792,-0.6284610249985884,-0.7138508864172294,1.3410168731013972,0,0.0,0
7.258,2.4905742088701808,2.7151939962099036,2.1285796251537232,1.8432452133991286,2.7730965883037295,5.2039583176544575,5.609607450507964,3.616971929927235,2.7890675376526763,3.319008642296712,1.7346054854749682,0.9376247946866766,1.1083436626118992,2.9184176990864827,3.4222863774038017,5.368265215368152,6,0.75,1
7.3580000000000005,4.429514477670668,5.505402839288599,5.6709642993767675,4.658568461258634,5.467295606908526,8.421869596940681,12.136726501080059,6.955561873771873,7.407544146841945,8.721730180758781,8.632280726773995,7.235324856800402,5.080079562821707,7.7845960179386,13.120134542125792,13.135711611909851,8,1.0,1
7.458,4.923393207897989,6.279851640792971,6.984524287624502,5.510630243262599,6.497100259750787,8.940643375231316,13.032947449669617,7.773442579288351,8.813223356923118,10.648621744339147,12.450275127163874,10.193474514454554,7.058750170571239,8.740578841086764,15.145405644683697,15.519037734369311,8,1.0,1
7.558,3.7249045872073117,4.292369443829273,4.943596575177301,3.9851853558259256,5.571300887855293,7.518712477605502,9.070071524492437,5.697029249531972,5.8934137746073585,6.200624139407626,7.426550698911333,6.39606954491181,5.67629828780955,6.995292307354053,9.91397106819431,10.430541607464166,8,1.0,1
7.6579999999999995,2.6948571424869443,2.358401610702007,2.1143067786889103,2.383968489774834,4.074116780355004,6.609660097149119,8.235591220607642,4.435813855905643,3.610079843387228,2.7485244360887853,1.7164966772218233,2.8906094309514705,3.6009966208516517,5.974675212896783,9.017401357348174,7.949045713842755,7,0.875,1
7.758,1.8726101632843037,1.5040902664127254,0.8981130151575486,1.6327348493156002,2.613742464366477,5.123829084329548,6.500017395525812,3.2701825013484256,1.3227046904651893,0.7895654623574335,-0.5528672292781533,1.2845166515890538,1.6474970396189506,3.631781302730244,5.539850289764422,4.061657069832514,3,0.375,0
7.8580000000000005,0.9290940516683152,0.9281973761504231,0.7523918970955601,1.336516864134486,1.7249663236738788,2.051309023401857,1.9100317718520616,1.165617525556208,-0.8477911339622523,-0.15461357540879755,-0.7537981895199296,0.6101576895995862,0.53989622081627,0.040075499989060716,0.46855121643560604,-0.0035864897344397933,0,0.0,0
7.958,0.6007168487938582,0.858032765929709,0.6595331335737968,1.1209433454092264,1.288686267187619,0.5459437258326904,0.9560295147648701,0.9016328786884342,-1.4441349189585981,-0.321599958973218,-0.9721562136964164,0.09643879281768293,-0.12694497719523293,-1.310233636200866,-0.5503950644509381,-0.5203490124329778,0,0.0,0
8.058,0.7708083407513546,0.6321449631019688,0.5412796283846982,0.7502069120600446,0.8572217059732424,0.3116236173860977,0.7060741345787457,0.6041397847249377,-1.077278445143087,-0.7888606571918012,-1.1952565604939769,-0.9852054988205273,-0.603301618513507,-1.5297527215797775,-0.8568932538258821,-1.3523405621220639,0,0.0,0
8.158000000000001,0.6887084167435585,0.5443426664162602,0.49713801942889485,0.4158020311301245,0.7789207400075535,0.30262041931932604,0.6271993075046796,0.45198139765710893,-1.357331915276918,-0.9655934879267036,-1.3078175385117128,-1.5953041712909726,-0.7174969177968636,-1.5382065937232918,-0.9710602717665697,-1.6521666038127811,0,0.0,0
8.258,0.42614773818347773,0.5945449473421294,0.3821458550737294,0.4493603745459068,0.7626636686306314,0.2984653699594817,0.5939724330518246,0.551437398214312,-1.8625852048125136,-0.8716380901093478,-1.5491930659742248,-1.4766755718721503,-0.7422551393056132,-1.5421861176785328,-1.00603048438682,-1.3582339291890786,0,0.0,0
8.358,0.5216644839707526,0.7437755600915948,0.36943856402858716,0.4454107073398397,0.892976512332462,0.30757301543354204,0.48128507675061893,0.8266041497217389,-1.635311613154527,-0.5673392102521142,-1.5799134353561848,-1.4781316536193525,-0.5619442749235788,-1.5326160037089427,-1.1787270798963656,-0.7878655513782876,0,0.0,0
8.458,0.6284182193405735,0.737933250577924,0.5105890334285759,0.6111877455814781,0.7213835654529309,0.44736470057508604,0.38509503101993586,0.9394806207270695,-1.377227706668838,-0.5692757920944668,-1.2963394511660424,-1.1083500725055695,-0.8636736527330584,-1.3801981006309423,-1.2840533941307628,-0.47044857640921933,0,0.0,0
8.558,0.6444043509836822,0.5980128803598634,0.6132123328918303,0.6236847101098966,0.5396985638154125,0.4766256910472366,0.4990188525519432,0.668211116303183,-1.3342086469569732,-0.8483248961546975,-1.0367289605766703,-1.0850116650626882,-1.0716219080594056,-1.342762760160935,-1.1283309481719077,-1.182944416998326,0,0.0,0
8.658000000000001,0.753277517824488,0.7477460332204959,0.612348153116629,0.42900216076012165,0.8528067841640182,0.4063685115935505,0.7450493196299101,0.4697014577006672,-1.0964988564492628,-0.5761834304463952,-1.0381494133689084,-1.5440204110238898,-0.6483024343238551,-1.42075587139195,-0.8259046365373172,-1.584423558293312,0,0.0,0
8.758,0.7403912581950233,0.8330193101220152,0.5265527864829854,0.4890459930713435,1.1507245904315415,0.7199529893181431,0.838316878852016,0.9482032555276458,-1.150868460600217,-0.36822484637279723,-1.2435389660460061,-1.4138112531172857,-0.20834268689199673,-1.1394682767957873,-0.6885994443792509,-0.6069969201846135,0,0.0,0
8.858,0.5054353411858924,0.7066739331963793,0.6188697786007973,0.4766801603110573,1.1719942859715122,1.6685173522762389,0.6957415889669916,1.206982723958007,-1.7031131929258652,-0.6657726799543469,-1.0864326374438247,-1.4806667383631715,-0.1791576088460809,-0.09565592154099714,-0.8837612075686667,0.21223303257419263,0,0.0,0
8.958,0.5934416287062284,1.1052158658920466,0.9484960867663783,0.7471832007660657,1.2492685882410726,1.9549877030797786,0.864720410016437,1.0819514019098135,-1.5218106335287305,0.041279689005190336,-0.3484760976241696,-1.1577256447709023,-0.11919551729462718,0.38657661607752364,-0.6850378299700245,-0.09459463860596189,0,0.0,0
9.058,1.3027614868256032,1.496453467118787,1.3049770032874521,1.4386071838592698,1.513648741164748,1.6894428919631215,1.7444825511748168,1.4109184891211917,0.014764993670108995,1.0548010415531788,0.451256293358799,0.5765408931520893,0.22077116724530077,0.09319432314650358,0.4018752620415048,0.5905992709986159,0,0.0,0
9.158000000000001,1.7323669578776468,1.7069116023043318,1.6213489396405634,2.091407099787735,1.7700586752718381,2.5751280922505453,2.6419037563660956,1.9350356440253238,1.3057530528440398,1.485619392901914,1.1417886563571649,2.2249921126014556,0.5041014802028663,0.9453728876654017,1.6949180956261902,1.9086079687380209,0,0.0,0
9.258,1.9324114398031798,1.758253580981681,2.2494769444356235,3.0643223969648936,3.8169205964935955,5.337061714212287,2.9480822828865265,2.7278177102488996,1.7944860274468106,1.6023102521096013,2.4224175459771358,4.417592523132669,2.8057060629978356,3.9676590248985564,2.118246004375516,3.719651732573859,4,0.5,1
9.358,2.278196014216454,2.1673877427103387,2.6131480642850895,3.428814068906635,5.35030760694175,7.22980733990436,2.4862436095606086,3.0067206489880802,2.4824563304656264,2.3304476955989157,3.3331275786857204,5.49550184694659,5.389004066421534,6.618327785557597,1.4470550043653003,4.555332851292368,6,0.75,1
9.458,4.603448808936235,3.563518364882082,3.0534623334283215,3.4267766800603074,4.5925675610945005,6.0391630512265735,3.758717782579159,4.3754090491563495,7.243859167950741,5.1407827934208745,4.199462622758661,5.4751920927991575,4.215661894761178,4.903948059905051,2.7569487053807675,7.290251797868987,8,1.0,1
9.558,4.694643311759911,3.6823989985448593,3.283397985712318,3.5332795480731014,4.304440485377582,5.820576954487474,5.261883038298204,4.528025763693188,7.682668243526943,5.520459980551111,4.768299947553491,5.726586191950688,3.8054019307803673,4.52224545083463,5.17368130033867,7.751230919915104,8,1.0,1
9.658000000000001,2.4982122869203325,2.7650337745565916,2.88543965928344,3.4188804107312323,5.703350296053866,7.7217380844529435,4.719553137262336,2.8846452692061133,3.0237544582685425,3.6942413968162384,3.9190954199969923,5.399971509993635,5.722116438689989,6.832218486309547,4.348552907674457,4.137049246884685,8,1.0,1
9.758,1.960831573835538,2.440115388832146,2.313351563521618,2.6255940658694503,4.778866632847488,6.27634956065878,3.002411301876535,2.414726550953446,1.832825322684667,2.9967892719576303,2.6038294001770668,3.1141417018788613,4.151036979824063,4.812180630201452,2.024116933529145,3.1527369482315715,5,0.625,1
9.858,1.649146118021728,2.196297761422353,1.6007132123625538,1.3456479027075758,2.696995782911969,4.199353504879116,1.9730425309119153,2.2859640326502504,1.1058911664710558,2.5147335559082458,1.015450387095691,0.5747168531446855,1.8775063268559982,3.0612447241349896,0.8288542271277863,2.8434601711586636,2,0.25,0
9.958,1.3197766863805644,1.6307775028881446,1.115129195898362,1.1002851699697291,2.41612309380671,4.235833970308405,1.8930069087530426,2.161150901182955,0.22289024815206454,0.8963350736988742,0.010740375376716082,0.0577194280994295,1.4792376752111518,3.1122543972730723,0.7445374596798066,2.501826007422794,1,0.125,0
10.058,0.9826126769799112,0.6405541700855756,0.814388669846031,0.9376997750360075,1.8003286635110267,2.9425897510768206,1.6144313973952693,1.5212426180851268,-0.5129265308484369,-0.8981454749226447,-0.6476456194414055,-0.32244368695699793,0.6250965537038075,1.4246877598369112,0.27640538508669543,0.35665120031814346,0,0.0,0
10.158000000000001,0.7267292055798422,0.6247816808707494,0.533551918384854,0.8478447101677653,1.2073858120155858,1.6450347932950404,0.9098939920599725,0.5058151371384025,-1.3363265390750383,-0.8468811928693913,-1.2427238981768602,-0.5220734408473311,-0.1783738722239847,-0.09821176931027047,-0.6428936996303916,-1.6479312054829784,0,0.0,0
10.258,0.338582274801055,0.568369745557763,0.38711155912556783,0.6879984315654708,0.7020282577013517,0.9814453260677589,0.5017413512596041,0.5955648230563805,-2.1288557321298405,-1.0216283386774285,-1.5404822444705424,-0.9886445395210188,-0.8978776103224428,-0.7631770818907491,-1.163314319278507,-1.3526647638770184,0,0.0,0
10.358,0.6303184089291108,0.26644425688916096,0.2678774674486187,0.47184329203325875,0.351848643119855,0.7794989953686682,0.5408247167414622,0.6746873202348013,-1.5143031157808475,-1.557266372362509,-1.8443753108010839,-1.4224206411645468,-1.2983662326540215,-1.0164278905862616,-1.1184571137426889,-1.0688560996804888,0,0.0,0
10.458,0.9098062757477231,0.38173134987994267,0.3214930518367659,0.5586345240864535,0.6677407788304021,1.7185511436758019,0.9624541529757159,0.7417927300274895,-0.701141099538326,-1.3647609266669352,-1.799141667184583,-1.2204335814482186,-0.9646915476530065,-0.17693335086574052,-0.5617485988088232,-0.9127304158397246,0,0.0,0
10.558,1.2547764326759419,1.119333540849092,0.9171464688620455,1.2402723756259146,2.304965458432952,3.9374592705762876,2.7519686161645662,1.646723009728407,-0.10393931111075447,-0.12911519357620965,-0.676332333244231,0.02861852309605748,0.7767321147020517,2.241978781799529,1.2774694455997466,0.6226320666047765,1,0.125,0
10.658000000000001,3.1382545935235626,2.3939169966253697,2.2973854835023344,2.7259409469184788,5.585290002916579,9.626932348353284,6.892479637580629,4.090087346129831,3.7741622908595565,2.581807392001081,2.184546878632157,3.3775577064174875,5.0926640065971345,8.4384329139097,6.534627945513781,6.06144084143649,7,0.875,1
10.758,4.049443069391712,3.648732712330686,3.683580876941193,3.95840909863585,7.796785408381964,12.206968412448555,8.686890766828016,4.719335989026315,6.887303707095509,5.459446903421354,5.551546537627866,6.671909940561482,8.792124983031375,12.672680942890858,9.768251246715746,8.524765974917248,8,1.0,1
10.858,5.980095566535125,5.127316405621467,5.025988810164104,4.396356007948092,8.665685363517174,13.212215751305559,11.771479264814968,6.53583405932725,10.901242754656607,8.523351640780962,8.509814545954342,7.772409689167939,10.003348169138796,13.778674137589514,13.347000275032263,12.103834570847276,8,1.0,1
10.958,5.833426675461017,4.577371349115901,4.655643575270584,3.5319942580320167,7.5995637489643455,11.906960919937818,11.642424914547249,6.759594868148849,10.123459183681218,6.663477395260489,7.3016804160056,5.235707387550659,8.26516060891856,11.784098572697378,13.150286075118572,12.862694284592394,8,1.0,1
11.058,2.631896317717883,1.997022661068061,2.6316123359067776,1.8789921368617033,4.610582672121111,6.3513445064847245,6.620903263510823,3.5713056799982614,2.7522790988681742,1.5505502196091712,2.923410015096003,1.5315731071254668,4.057218218647781,4.698583128625167,6.7048376785357835,5.129177521862593,6,0.75,1
11.158000000000001,1.2035968555012815,1.4060307810565034,1.4169593945604357,1.1954732405374546,2.490302614885222,2.475511686594749,3.760195982589034,1.5506014465175912,-0.0606639626068272,0.8047570362806343,0.6061227445631948,0.23289802364557882,1.5197465134729853,0.8832896494587599,2.7054425968918308,0.8363008375752973,1,0.125,0
11.258,0.8293205667992081,1.5984462495713818,1.0835240651477709,1.0560944216244064,1.5289900982619407,1.6770480210030068,1.656990396562724,0.7763012034591352,-0.894701776352983,1.246723909418755,-0.026243538686634964,-0.1624009330523028,0.038079429877579604,0.023569104169534155,0.2934331853656367,-1.0017137745700786,0,0.0,0
11.358,0.6424110500690973,1.1756882627099572,1.2419941553128349,0.730388259604402,0.5220342169687798,0.905918221163128,0.9987806345761125,0.3617901162739954,-1.3683989315532874,0.13573755251815928,0.3248348955154464,-1.0947647958710758,-1.1230063620014472,-0.9393701099532752,-0.47475519779874087,-1.8295031156225825,0,0.0,0
11.458,0.5726474980450721,0.5802931700936844,1.1317929419698245,0.6463110319346927,0.47918744909129324,0.445175399371531,0.7032187100921192,0.8927129960782443,-1.567717859689816,-0.9381312585379481,0.03019081435155569,-1.1563977529696545,-1.1498375722158118,-1.402154076808571,-0.903774567524114,-0.9235426579695476,0,0.0,0
11.558,1.001855845219373,0.5765359763596165,0.8091351566522149,0.7669866123747685,0.8630227694834315,0.7431588281774201,0.6116645771990964,1.4367470800886453,-0.6676953721074952,-0.9626906584600123,-0.626411058713728,-0.7273693635214535,-0.6418611855147007,-1.0892525153796115,-0.9899403520222293,0.6271018753227657,0,0.0,0
11.658000000000001,1.4982640943658567,0.4709141075173684,0.6692834149283323,0.6054048919350158,0.9878479514661584,1.0523490253034573,0.863060411110013,1.2587361799889927,0.6968184293745315,-1.2433422873825808,-0.9282667578976884,-1.09397341056499,-0.44292404876329367,-0.6535254865287057,-0.6470852292825928,0.1282838431384351,0,0.0,0
11.758,1.7240595774284568,0.6345039734296362,0.7220134506463719,0.4535740025770367,0.7279484960097344,1.0167727202073134,0.9507355836063462,0.9393075733819627,1.2923606785873516,-0.9691437325615533,-0.8431202347853028,-1.4679185253596816,-0.8328191632588215,-0.6974716315814057,-0.5172001470507954,-0.47981936520672985,0,0.0,0
11.858,1.4299097396986566,0.8252190270715413,0.8445339656505683,0.43274096396575096,0.7519822494910464,1.217981232170636,0.8559239447086215,0.9698171502291959,0.40455619673048365,-0.3899581245765272,-0.5574511757760925,-1.5272825705787152,-0.8082823773999428,-0.4933419231452981,-0.6444284938248764,-0.39397695058884674,0,0.0,0
11.958,0.9334950164783231,0.7869350787987317,0.6991751092256483,0.5024466409417396,1.1310710361342262,1.549863230536979,0.6967697660602659,0.94183482041386,-0.6766781805249142,-0.45850073786744205,-0.9180496003043164,-1.3493584527915854,-0.2602497456189433,-0.051927203751254127,-0.8666178120187388,-0.4419724827517045,0,0.0,0
12.058,1.0752897452164005,0.9106715479690732,0.8591903873872766,1.0075966396363099,1.6173284201304545,2.3632822360084855,1.1261693068290206,1.0349863040890768,-0.36150507032480217,-0.3073322507761752,-0.8120875760463957,-0.46056188327967956,0.36459811410051113,0.7827393967256965,-0.4866313069925198,-0.22295463630501344,0,0.0,0
12.158000000000001,1.706361957259799,1.7396765299189463,1.9634718252451582,1.622187740168981,2.875365635272265,3.809470335318917,1.9344711238795824,1.6647487486184733,1.0924526503050593,1.2429699310262483,1.436987040993865,1.1323357697218603,1.8980858983697995,2.5102186423092716,0.6513941280844605,1.0602756741931212,2,0.25,0
12.258,2.2415843561841995,2.1402149547354195,2.5531128750859087,2.6129032620309127,4.742187491616735,5.593380408958494,1.85115146143841,2.487843340590435,2.5229150692317277,2.410506930576672,3.1569973434691976,3.340110205090734,4.488296375953631,4.673569223700062,0.56712079117554,3.267850015873383,5,0.625,1
12.358,3.832556789703913,4.10595312141859,5.190608525144902,5.045591520709717,6.57314652891265,6.111613235176496,4.074562779503818,3.6715406219256295,5.753774479376167,5.631251854593098,7.813455818388266,8.519185895692516,7.017244066030175,5.3803973254395645,2.5065952304591512,5.870657291936572,8,1.0,1
12.458,5.605595003073438,5.513864382920344,6.485549474158379,6.341609340761942,8.849638038519963,8.105124748470923,8.080354308514801,5.312428889424625,10.454693505459222,9.367766554322282,11.650683625888167,12.155164419581855,10.048600447809699,7.422118775445912,8.353160515725921,9.776680236052437,8,1.0,1
12.558,4.983538392159968,4.533535077615341,4.906521891041567,5.424278730779272,9.52322837169359,10.729207418954815,9.21027257850938,4.618259310425715,8.486774609048899,6.986707215587673,7.813091158694095,9.80974709314805,11.072261757097175,10.881995285774185,10.510794279870261,7.368505509908462,8,1.0,1
12.658000000000001,2.7025049240125596,2.504929465274326,2.7329935972018964,3.3122715308661306,6.703983902232902,9.352940244736546,7.6077361079010535,2.854676683397404,3.3138150895167753,2.7773442733680094,3.272923546828083,4.406371055200818,6.34773169637917,8.781020854505252,8.335034846386113,4.037260716490542,8,1.0,1
12.758,2.402858857557234,1.993923149525737,2.0994000581562684,2.1949638559487763,3.0005068937503783,5.841951231651096,6.324882519436326,3.713538125898453,2.8031355878810995,1.954523592537598,2.0932535232495812,2.409103345787231,2.187361540682183,4.880931481471408,6.6219597507073145,6.173022419011566,6,0.75,1
12.858,2.1641774020627236,1.7098921458420953,1.666657272915739,1.983625730243377,2.0382118321309806,3.861979504717039,4.404330501512646,3.223065007624883,2.0467744161600416,1.0291233726721634,0.5916192121048063,1.6530282365023816,0.7247573908728002,2.381890596681202,3.3602942607354356,4.5607021549965365,3,0.375,0
12.958,1.0698843047452884,0.6440870542507621,0.41987352531268096,0.8910715879753116,0.8955964271078002,1.8389952900347502,1.4729781170344787,1.4823456668138857,-0.5929789610727687,-0.8250924851857938,-1.6887504419837882,-0.47974267463257786,-0.5730321574837254,0.18863166626378863,-0.07758872248791351,0.2271187651991901,0,0.0,0
13.058,0.5180454027839776,0.5912114451961058,0.7442507356649265,0.6040650300065387,0.7801992202665572,1.3708662008919708,0.6512863488288233,0.5929839078398622,-1.707442790512951,-0.8859196308963652,-1.1180912337444306,-1.1622840105396162,-0.7126504719423497,-0.2715332981263079,-0.9247490914023853,-1.3038098579493256,0,0.0,0
13.158000000000001,0.8284027632709171,0.931970293274944,0.92809304443166,0.32737968694091757,0.6800281398964243,1.372787766352711,0.901550268253468,0.7922042502025185,-1.0520699205482011,-0.2193018034783884,-0.4294898542366748,-1.766823433340121,-0.8672852964202644,-0.26245303898616557,-0.6660139690112563,-0.7976340474898009,0,0.0,0
13.258,1.0841237278153204,0.8822935174064822,0.6342946543177563,0.30226158650916835,0.4131936403262257,1.1678909774754869,1.2152570359670356,0.7774040429820879,-0.2680851344243024,-0.41336817280568267,-1.1318642477895846,-1.8209409060229305,-1.2449703000687469,-0.5431219073525103,-0.21065991719706614,-0.8280415577423706,0,0.0,0
13.358,0.9877034663412773,0.36953150288523284,0.6609679056992422,0.7235655491736923,0.4926772141258477,0.793057615077722,1.02388807753392,0.6834309871861703,-0.5121698126398788,-1.5057108250326663,-1.0435924372101184,-0.9969832475037939,-1.206039780787817,-1.0508706907178411,-0.5057994852515904,-1.0406565264899863,0,0.0,0
13.458,0.8005223027273813,0.357191349214688,0.7532391538946495,0.9436781824327658,1.0622763643831938,1.16321286111709,0.8903211537834878,0.6369334763533472,-0.953473755447258,-1.5136991024918025,-0.7502545339457783,-0.3632660105660116,-0.4561063368986863,-0.7114792538508292,-0.6571177995273573,-1.164868393054125,0,0.0,0
13.558,0.623587045593243,0.5830268754763145,0.5730188344572227,0.783273810429306,1.4549777964058188,1.7500277561953397,1.5852867847211403,0.9750080036111136,-1.4252103265737035,-0.9278494966968023,-1.1420026759279525,-0.7747798599448416,0.19553677193376215,0.1542976103720826,0.21833882759837792,-0.5026105201030804,0,0.0,0
13.658000000000001,2.4139432189611054,1.6712714584332309,1.3801323892172233,1.340728084201294,2.177760258549078,2.360354809555241,2.7036210979943758,2.4423359493470693,1.2963247565525198,0.7043208285537361,0.013707624722101385,0.16128142691803227,1.0508436738356317,0.7016938738088181,1.395249080793816,2.369772711633621,1,0.125,0
13.758,5.028191462773226,3.6407746694782954,3.1807852624807826,3.016026143929541,5.038564248544186,7.997294872014438,9.40325047505475,6.791899644032431,8.34580973794923,4.897848280459591,3.94310183556099,3.9816958773393907,4.416274254162136,5.963387410351286,8.571824924289583,11.65002340426047,8,1.0,1
13.858,5.465286254280438,3.9341479282969636,3.5735705060955305,3.6308596964051887,7.528985359331974,13.2564675919509,13.350052026664631,9.177181119755858,10.199856690254585,6.054618406254173,5.347131710388371,5.8847746948779065,8.27414622978141,13.530246437572615,15.953373079662896,19.278553327239276,8,1.0,1
13.958,4.336999259918527,3.3062879525822653,3.137295373506761,3.9088665912365257,8.51398899356538,14.481890975703866,12.873675119855793,7.940888531195721,7.601511568339478,4.880980005347128,4.479077392630815,6.4152842891757205,9.660406747871166,14.995416553064029,15.162669597368378,15.995201554283843,8,1.0,1
14.058,3.993102623584361,3.154989035656325,3.068764748542818,3.69890225533078,8.04583271685091,11.78399509648596,9.71653342491654,5.606126978622807,6.799508757372,4.528527623405324,4.323393849946234,5.884887865401393,8.998158421330531,11.451002136455191,10.431118171405561,10.616281943434291,8,1.0,1
14.158000000000001,3.6871295887469984,2.9476373131513443,2.8812839808726345,3.1189007715646584,7.1604138797695684,11.444534204644732,9.908292615361237,5.733954097039716,6.028664163379639,4.0641041391153285,3.8377702563819027,4.659867038672636,7.928309574692866,11.459734924562625,10.891737870809285,10.999222850238286,8,1.0,1
14.258,4.393654298006246,4.203629366843595,4.474343047379264,4.5683893515277125,7.178415049560295,12.006969539601533,9.481591120122197,6.144270750662384,7.573178187466153,6.475758495576497,6.863197441821765,7.753714103288043,7.9864115148342565,12.365941167773126,9.856953001454325,12.113443782895382,8,1.0,1
14.358,4.009979301218284,3.929045837210591,4.488069316289248,4.617478624035359,6.786781892255184,9.213193449993126,4.701912717726123,4.521405348456194,6.130074853137934,5.557555124848649,6.899870409921232,7.885631910081945,7.314311646114346,8.850987526201004,4.113326035467296,7.521548543337255,8,1.0,1
14.458,1.7567343234314607,1.6749194876663358,2.2210128925189028,2.6584141087463395,4.465465324313798,5.4640182101892085,2.813642972016749,2.0555948179858703,0.45386407032320636,0.7475472246838316,1.808748099749269,3.083713315624146,3.2809956877233843,3.7193107871867435,1.7077481639197623,1.3921576708952355,3,0.375,0
14.558,0.4509359229587816,0.5143254618361915,0.7639901610663031,1.3347429188773599,1.396176155023061,1.722274405766137,1.5516768759757504,0.6340226947628658,-2.0229654882170935,-1.1617707808630295,-0.9562638614510585,0.6001000705800777,0.04724548021488008,-0.328615159619914,0.2458572536115343,-1.3720807291494599,0,0.0,0
14.658000000000001,0.5282893267898586,0.6762065002423926,0.4909762038002844,1.0292717286826403,1.0691560685053862,0.5719423871670138,1.2437095572031116,0.5323856570149725,-1.7540969512072497,-0.791752385131477,-1.3426515959429712,-0.1829500443312826,-0.32584592449568894,-1.2209305825813277,-0.15611619116349473,-1.443760288652834,0,0.0,0
14.758,0.5925725923204394,0.7833994609069617,0.8733007662936024,0.762351334516695,0.7822978162781177,0.5882128625822378,0.8173603730883313,0.4563495709735647,-1.4920320145742383,-0.48505165055933663,-0.5619257562578321,-0.722376073895014,-0.7294357565006104,-1.1968290653356035,-0.7685797185517195,-1.6633206956844977,0,0.0,0
14.858,0.7171442663258613,0.8657104010126452,1.0426314479009533,0.925660218508011,0.5986436611684983,0.6539458402913584,0.5148221317807957,0.3462912564742694,-1.2287767617841354,-0.33513492252016935,-0.16236777816766898,-0.36214791289767423,-0.9597486529268041,-1.1360069280400062,-1.124136973340592,-1.8919452951665807,0,0.0,0
14.958,0.7765905021047477,0.9754173608099617,0.7324276027418045,0.9506505912693839,0.5299684525331474,0.7616173732607422,0.5687608465646867,0.47128776413068474,-1.0296979872234338,-0.08493013479620733,-1.0453045815615123,-0.3032850165633163,-1.0533539464081596,-1.0040457927090107,-1.0578660833870077,-1.5740242756337144,0,0.0,0
15.058,0.750806500959386,1.1378123003303589,0.5938832743203017,1.0145998881925629,0.6780136897813392,0.7332881343820722,0.8499714359387773,0.5822925173186798,-1.0835991714295847,0.2415442960099575,-1.2767494522252365,-0.1683682838367983,-0.8844043074305226,-1.0327880955793431,-0.7606385755365194,-1.302494724787282,0,0.0,0
15.158000000000001,1.4623172195133178,1.4372765262620395,1.0340082524024043,1.2074492472272114,1.862455628769317,2.89657964871654,3.0778657532278757,1.7104472463081914,0.22306182163616936,0.8603700873825696,-0.21840929012674012,0.2757882308168084,0.3596782067728637,0.6844201253690934,1.424413099686048,0.5815165588359059,1,0.125,0
15.258,3.6416220834563364,2.4889637487334784,1.8707535736960919,1.6281398599737174,3.412906516077824,5.5819393426327455,7.326390713432995,4.535645091745132,4.993416454100061,2.7987287694111576,1.459479570387132,1.1809690568113624,2.60429642257548,4.34121607691134,7.14059330497427,7.026765784591204,6,0.75,1
15.358,5.718945972085515,4.361411274509612,3.4171108911346373,2.341087220910009,5.087201330741755,7.777470912350251,8.385822280630478,6.615410926693034,10.745036735079646,6.8052250505631875,4.750236022852878,2.7901939595160252,4.950419711605223,7.338278185730005,9.278759608160176,13.129760079507724,8,1.0,1
15.458,7.1002110479037945,4.467579342724134,3.791541421870235,3.070571530388428,5.850670300767543,7.440150303261755,6.32121544842337,7.862649700403103,14.161348695815017,7.017416451904398,5.853124021981058,4.404598238304438,5.880033025637114,6.670528911118221,6.494631696706054,15.907894968502532,8,1.0,1
15.558,6.100245776220075,3.078316581143878,3.502672311443656,3.621263115956719,6.292887518046341,6.602935473689451,5.869916784941658,6.281744923423897,11.144101757033805,4.217078680235156,5.273740784055871,5.651697470756326,6.208410818997709,5.459773117065233,5.770688588404928,10.401778546506202,8,1.0,1
15.658000000000001,5.182084689159354,3.584135453733315,3.999079353486419,5.416406886825807,9.474486467135701,11.798453325424072,8.543717811073083,5.414065175820249,9.344682680421354,5.242431375957385,6.34135905031601,9.496058043256408,10.24622133760277,10.99557815960362,9.026696218816467,8.99395171998814,8,1.0,1
15.758,4.743876018747476,3.3213280759682635,3.3572806112586124,5.117214861647192,8.566148298631266,11.135140740614343,7.476749113864055,5.601247275969731,7.33226578977563,4.325759889713979,4.522859292477073,8.418425356401109,8.28155752475517,9.44397957684728,6.339874296472646,9.44615088583268,8,1.0,1
15.858,2.063660047410933,1.5716239003682264,1.7836649810110834,2.1125728675207562,2.9559049522676832,3.5786618595785433,2.403919844509377,2.5283884976815156,1.1916609023387132,1.0412479326862043,1.4325087501634959,1.517661615524538,1.9753954612517415,1.7953727773529262,1.033439403456606,2.3859803574009915,2,0.25,0
15.958,1.112085436788766,1.2804906911058078,1.1357643493941627,0.7368301553529952,1.756607174000519,1.9751958653986281,2.6699326126765497,1.1677204460389523,-0.25169123713494684,0.5841521893963921,-0.10440805649794176,-0.9549534984909711,0.49669206626074425,0.451470568612064,1.6778063445610782,0.12244337545791746,0,0.0,0
16.058,0.8894178204742941,1.036690921867312,0.6589282785945566,0.7942764941652993,1.1167304623480523,1.41821772988225,2.274857325260679,1.008056899820745,-0.9006481670754851,-0.15472770515901865,-0.9487525121967583,-0.738258276207683,-0.2582585333759415,-0.312785642349219,0.9821794153521417,-0.2592146832346104,0,0.0,0
16.158,0.7450545829540431,0.7738048105850112,0.738428220984895,0.8200124420949686,1.0014103228232225,1.2224675124493714,1.126562026130588,1.0331543594417008,-1.2155461665868244,-0.6694878922718334,-0.768381855768647,-0.6263458684072514,-0.42040269755157605,-0.5243178770068864,-0.374337185383233,-0.19748654862361692,0,0.0,0
16.258000000000003,0.969847679786316,1.039976218580946,0.7241444735048037,0.8673711652907098,0.9167039311014018,1.6451591640535381,1.1688288570333754,1.019683216648357,-0.6197337061292654,-0.05035884905512393,-0.8015226815884023,-0.5272766718173026,-0.5280263980592514,0.03300449394887601,-0.2716294699564702,-0.2635000364235245,0,0.0,0
16.358,1.4475534077549286,0.8552328526337036,0.6421103887705534,0.919293187516001,1.0166796163269023,2.1213638437861406,1.5360465382669992,1.0906523008556686,0.423145393114297,-0.5017556264728313,-0.9957565015231886,-0.37829122427088324,-0.41736380672579615,0.6117881489842808,0.24376282769970822,-0.15515724834699704,0,0.0,0
16.458,1.4531461834926729,0.6564467578515034,1.0199042283860251,0.8439614582415044,1.5753487406984632,2.7771510775256893,1.8975036296296495,1.2120823834106969,0.27783488950479257,-0.8221418632491014,-0.282673109754213,-0.5343996740220349,0.2659227659013669,1.2604600834710162,0.6649308775869247,0.17850266682635246,0,0.0,0
16.558,1.5655390717003388,1.9103332616247812,2.2773016878904166,1.4530121671194791,2.518886402562868,4.655751442322927,3.674618165126421,2.34565202359946,0.2524729733307888,1.3375324504306987,2.135837622653402,0.57855765580374,1.5526724340382363,3.220894867637333,2.729594769997024,2.397553436414412,2,0.25,0
16.658,3.471004498327174,2.486974884894902,2.912066536842717,2.4470524225644423,2.7610460629904328,4.832310132691385,4.643239737246969,2.970087804426004,4.638142024865455,2.9150214439718125,3.7606364318319834,3.0011965246541568,1.922331179702542,3.5931295130302425,4.392432465554878,4.424133687325385,8,1.0,1
16.758000000000003,4.123566180205042,1.8452447130130962,2.2143029724932854,2.8459174034136927,5.152555316377028,6.850754690433044,7.804165981922176,3.2543147315437544,7.007218339363594,1.376319569158442,2.019032495266163,4.1433001993274905,4.470802090527402,5.517645107947836,7.865782110583071,5.113277213695699,6,0.75,1
16.858,2.815536405869198,1.4437311347239372,1.579848593897327,2.492891629175268,6.335288975362168,8.73568155499228,9.460499270996833,3.5835262291203556,3.205979508938217,0.8362751553961518,0.9547261627813052,3.2713656026478106,6.711571561850667,8.45325699374113,10.59380902030409,5.979884419062834,6,0.75,1
16.958,1.6112941037861035,1.4888404716503376,1.991594159180201,1.9383040128771394,4.448704839306788,6.575406860470875,6.6676649570364805,3.0935643800547146,0.7809030498656891,0.9607649516469173,1.9006073672357533,1.9346098219463825,3.682832311378925,5.3721682045208246,6.118880913237648,4.691273651236289,4,0.5,1
17.058,2.1676024536080436,1.016553751461265,1.8342313461396091,1.4147034555642732,2.120061803679116,3.293732471485812,2.967989169555459,2.3883336768795855,2.144508347758369,0.002372178545794694,1.5670224996864168,0.6518665233591816,0.8930794416592681,1.9234161582710745,2.0849426413552967,2.9637624520150014,0,0.0,0
17.158,2.107927958540455,1.0105151470403175,1.3244066494839717,1.2742083834463311,1.7390548292627503,2.6351496302622714,2.5320743327461908,1.706080009693907,2.079330400485436,0.0023280644224925595,0.46915053986673405,0.41059444617418084,0.5224556403018765,1.2370540598792759,1.5957605672779362,1.1135265456945054,0,0.0,0
17.258000000000003,1.3938452692875511,1.0301608178515873,0.8853406006956938,1.1864315346217706,1.3426045487345195,1.9865942697437333,2.142275250596962,1.0790420704177173,0.4257990115996744,0.04687609334483325,-0.5872971223301842,0.17168904327744355,-0.16434158377506147,0.23763794135098565,0.9964483511595714,-0.07533034528639622,0,0.0,0
17.358,0.9871726687583061,0.7824073123760025,0.4510436082731214,0.8483894124338864,0.5858527698142486,1.094972693193123,1.2178912289252262,0.8769132365964222,-0.5565575603663333,-0.4902658953463922,-1.4292414968273215,-0.52835359742805,-0.973488849221306,-0.6078535989838073,-0.3855556093684004,-0.7301074623960115,0,0.0,0
17.458,0.7430454423735929,0.5499416908507282,0.5383945048217864,0.6420781049374481,0.7237906566685093,0.9338677222256987,0.5231386731740936,0.6450127451663578,-1.0906849640311576,-0.9744737814500212,-1.2760598516877324,-1.1279945531966653,-0.81929339893781,-0.8598667479283675,-1.1825789451852557,-1.1967257462941168,0,0.0,0
17.558,0.7391310310564717,0.5068171602999448,0.703764993837676,0.44212550755507823,1.224124765211767,0.4658002771043841,1.4189986567802508,0.6974556212907763,-1.1004494212808622,-1.049014271117081,-0.8541016829923354,-1.5047634618139338,-0.17138957299116153,-1.3775043526030302,-0.21089985769498037,-1.0181290279486663,0,0.0,0
17.658,0.6707781064566052,0.5823974543002137,0.9846637169154736,0.5416925818940314,1.2984283357076505,0.6266090099712939,1.644587638196147,0.8462858176836549,-1.31487246983195,-0.880109646885551,-0.28943773990228505,-1.2627653728832626,-0.031171254813848463,-1.260886034866486,0.3542154345010704,-0.7057717416768805,0,0.0,0
17.758000000000003,0.6672208854256679,0.8731737297132833,1.1354422777172906,0.7967385273073339,0.9171272581845237,1.6552195190835846,1.394532527030164,1.4168847798428001,-1.4264854251779222,-0.37937464674450116,0.07830114154594789,-0.8115256242265092,-0.5504166373476596,-0.15623937215140976,0.03837509879980204,0.6026319481276314,0,0.0,0
17.858,2.253800544924641,2.155616857119652,2.3216873086532037,1.9399738069205918,2.171601048571989,3.2778180516631137,4.804882409938732,3.484486169036148,1.5789698390330191,1.9173756359984413,2.0813793496682464,1.4665939673309247,0.662014727344503,1.8253144561385242,3.2361985057791998,4.706298210968116,3,0.375,0
17.958,5.872266422813434,4.501660803079759,3.916169911218143,4.089694496794267,5.32645468168536,5.463982818427295,13.480220031777717,9.146628819479838,10.003180324096993,6.834960423857263,5.949408972345951,6.433411133735341,4.7618718479233415,4.352642069542012,14.183593655159708,17.112831778630145,8,1.0,1
18.058,6.454476179559762,5.14420888896367,4.258006204000948,5.280367376148842,7.934081867222371,8.688962213778506,14.708334174429694,9.601194153250933,11.891814800135808,8.635703513038957,6.924827298955999,9.782655743956854,8.838475666992046,8.143517496936383,17.106364568363656,18.611249716712628,8,1.0,1
18.158,4.224225523198772,4.3592204034704505,4.258565832748634,4.927635854040674,7.98682172031248,9.88842630589556,9.591263731351658,4.8552177260859715,6.660914520594152,6.9424734679592435,6.908120764798797,8.946393548608034,8.952676227135049,9.907402522338534,10.819889509107734,7.682663997952817,8,1.0,1
18.258000000000003,3.5503147462629663,4.803561929147654,5.168168085336527,4.4187628128209635,6.113992998306711,8.93595972636682,7.343021850961288,4.286327549495193,5.476272893238603,7.844492371262405,8.868955436421501,7.813832834648387,6.328471607386195,8.731603855789725,7.91831072375017,7.25849351182507,8,1.0,1
18.358,2.895809157716465,4.071013164250478,4.5500682208998215,3.966125003606129,4.994105401046392,7.691099203798346,5.930443648584231,4.837146599315235,3.662440915888508,5.588980236811919,6.970458192076036,6.611959155306816,4.94005762804911,7.060838338931523,6.1526780865557775,8.931547105305125,8,1.0,1
18.458,1.663114461334286,1.550014491558923,2.2883100808580963,2.6327966185704774,3.850290288073115,5.157403433223997,4.991229228183801,3.3593374788410393,1.1170464051327547,0.5227574708584638,1.9917295497520642,2.9371455783672435,3.012064852380416,3.486459572904102,4.639279751083135,4.686763428974601,5,0.625,1
18.558,1.2138860024418958,0.5023734654457093,0.9301751904461485,0.9885202100669183,1.704159771979271,1.8946266394837261,2.9190898240288687,1.396713446938101,-0.054149590748021906,-1.121721304271945,-0.510769074830759,-0.5597801969404556,0.28903004256769205,-0.1907072841455818,1.2270558995324226,-0.018309622837188722,0,0.0,0
18.658,0.7629627265853598,0.7866412285766997,0.5125905341797443,0.3471059316343911,0.7183487902742237,0.4784933771417815,0.6956687871800787,0.7746159076175496,-1.069384464358107,-0.6063981950431363,-1.2862983272812343,-1.7251593575519593,-0.8582543649666874,-1.3443342498667126,-0.9017195623083036,-0.9868049062352175,0,0.0,0
18.758000000000003,0.58058058450041,0.8349367025181336,0.3955243514009266,0.3018559498805293,0.5904697929533185,0.5288238069482016,0.7370201458075659,0.9606776471094056,-1.503035361273314,-0.44373338561526426,-1.5543305767323323,-1.8072052172222275,-0.9831480933863908,-1.2819948089781,-0.8235490973104262,-0.4365292718791741,0,0.0,0
18.858,0.5369654431299403,0.6649855511677892,0.385986790935809,0.4888747158442264,0.6799574741739081,0.45300389504476374,0.6808808977545455,0.7313938021325664,-1.6311810314057535,-0.7562005967239263,-1.5655352042472095,-1.4060432466331754,-0.8404487204653496,-1.3801828508095877,-0.897596351884299,-1.0240331324674978,0,0.0,0
18.958,0.6610876991341483,0.6578149414743782,0.51014337127419,0.5435160784470969,0.6058066447303551,0.536366594607536,0.6652758424268963,0.5110097095442622,-1.3531356647132697,-0.7704019206429958,-1.2875488936548478,-1.239662388608826,-0.9489812831923796,-1.2875420307049485,-0.9125719624200238,-1.4476435678976554,0,0.0,0
19.058,0.5892221389835236,0.5045054745388514,0.5376217930864543,0.40115721825196093,0.6619932053682027,0.8117273131158457,0.7848678842173986,0.5035741805753732,-1.5727519546672455,-1.0810665495288858,-1.2046628025021557,-1.591287119974338,-0.8824942940522902,-0.9436332697410348,-0.738357617210838,-1.4712832618495404,0,0.0,0
19.158,0.4131321645180788,0.3613605087992936,0.43619853341858056,0.35825979752361314,0.6015731569735648,0.7455321712087174,0.8035908874429757,0.5009387764463196,-1.9121336735049084,-1.379133784107516,-1.4476539135787323,-1.7009334577216684,-0.9933643404958943,-1.083149281880889,-0.7145745751866542,-1.47678810215033,0,0.0,0
19.258000000000003,0.5383149092841925,0.33123034788252864,0.3523085129389478,0.7546804444991917,0.45638191359787345,0.4184901882250908,1.2119022937907005,0.5567532776510487,-1.6181405665206223,-1.4567302591668045,-1.6234282382993424,-0.9163733039979812,-1.1570039607801537,-1.4485472483413335,-0.24453366837401846,-1.3379308403882624,0,0.0,0
19.358,0.5075278452097128,0.6762550404483427,0.5376590326288275,0.9914565671363456,0.4418848749898509,0.517796170869213,1.2754988202349093,0.7201083101139626,-1.7306518136893232,-0.8087666859436962,-1.2640342896155055,-0.2359122712002022,-1.1793845320449727,-1.3176534728715747,-0.14058712871124163,-0.9694985554219535,0,0.0,0
19.458,0.7436432928957121,0.8502446240481581,0.6589399719094725,0.7289321766349961,0.48954372716981537,0.6305037261702716,0.9695898158961026,0.7877965369977917,-1.2645098877686751,-0.31714776269773803,-0.9474438672833433,-1.085634738323361,-1.1316885182292484,-1.146470129224637,-0.5055950864656319,-0.7841495905346141,0,0.0,0
19.558,0.76827507955525,0.7460710417140246,0.6219127564250762,0.2724177180756966,0.7327371847284259,0.5598693524811172,0.9529586796168398,0.6423305025295482,-1.140715685636811,-0.5456680920867834,-1.0260294421593157,-1.9239627133061739,-0.7949474375850338,-1.2429894820069036,-0.5116924785818785,-1.1513798047285446,0,0.0,0
19.658,0.4349627706850736,0.5241214668213662,0.5587087501481892,0.4120030587138319,0.6411910426619881,0.5309240695150137,0.9452845843849438,0.6070486417761805,-1.8570456819504226,-1.0626078540119597,-1.1638851622200745,-1.6089145459088368,-0.9800244523446026,-1.2853856631924487,-0.5269055569346888,-1.2253215269537656,0,0.0,0
19.758000000000003,0.3975626543577873,0.436748469541736,0.6224514069512719,0.48597190747949537,0.4737821680832958,0.5127140450452642,0.7587317920773067,0.5544209384843772,-1.9298593155951356,-1.2120204165758632,-1.1104254901416086,-1.3663482179176185,-1.1699396010549494,-1.3187813385712581,-0.8175925489461756,-1.4196454526163638,0,0.0,0
19.858,0.38025241784425035,0.4744711127077408,1.1175959197506853,0.4480496937724796,0.6408933961253502,0.589543414551857,0.4220484674212688,0.40634173146732766,-1.973985141417645,-1.1206407332919348,-0.13086386245734832,-1.4605289363648384,-0.9238406657068993,-1.2264877903916618,-1.2502748289833878,-1.772629073619654,0,0.0,0
19.958,0.3523411789128593,0.5367897885365528,1.2394198621842827,0.473322726788096,0.5691338686195343,0.6979324327516656,0.4170560496736022,0.6009271661553856,-2.0376048177798585,-1.039750980483743,0.29999635758493215,-1.4438612165769165,-1.026327604055815,-1.063790978528515,-1.2568591641480307,-1.3291984678582074,0,0.0,0
20.058,0.333875200318728,0.8342253911566195,0.845643666565451,0.6972486646579283,0.546251680874438,0.7871430543204626,0.94124133760898,0.5816523573883983,-2.085906140983618,-0.4277546563349408,-0.6008313734879467,-0.9732674840775359,-1.0452130893997917,-0.9703044301873188,-0.6527326315704312,-1.3702076685789275,0,0.0,0
20.158,0.5468274603973987,0.9252364074083713,0.5167223392836013,0.6906622712399362,0.717125059148923,0.94629917415345,1.1009697473361375,0.45002465358159105,-1.6824957318504665,-0.15963810737820638,-1.2694422705350614,-0.9687156955567552,-0.796948560468062,-0.7830381662488636,-0.3883143371709822,-1.622327741990107,0,0.0,0
20.258000000000003,0.8026678058447502,0.7334851933230947,0.5842682273263836,0.6016770807897661,0.8704162970391099,0.8549827140517527,0.7866007843340537,0.4450630946691735,-0.9802732281940203,-0.5829980631576694,-1.1392156061105194,-1.1380709468806844,-0.5864377081501614,-0.9044445100175101,-0.8038937012042039,-1.6365080457805992,0,0.0,0
20.358,0.7502632264270601,0.5806703796396459,0.6722774322550181,0.56804636472997,1.056849419271232,0.636834678846737,0.5406957530545556,0.4519174936872551,-1.110582987711898,-0.8863691184017201,-0.9149647371439045,-1.2300067240085826,-0.33537112147813813,-1.1369866416292025,-1.06607004482899,-1.6333327363232741,0,0.0,0
20.458,0.6255579486041009,0.5615222962233863,0.545852604689055,0.6182917222247035,1.0154981522671793,0.654360681490315,0.6078991787114273,0.7242495615117919,-1.3803110612456888,-0.9232823384057397,-1.2073736061193485,-1.1516531048240317,-0.4126362482283903,-1.1170643316962763,-0.9872487526838416,-0.9880162674956964,0,0.0,0
20.558,0.6330005539663683,0.6994607172366679,0.46651866651753116,0.7374113764004386,0.7414391270803339,0.593449441295248,0.8042397938421569,0.7519132191351864,-1.3740841253646425,-0.6557143851944094,-1.3660619574110098,-0.8202908395457753,-0.7876314144324293,-1.2020526873605921,-0.7278257180496847,-0.893288262605991,0,0.0,0
20.658,0.7328762339883491,0.7322283003218669,0.7564114829497349,0.7270401251797004,0.8324428808839878,0.4396385280496323,0.8788003370583921,0.8757132884583247,-1.1602416182919457,-0.5727040400067336,-0.8096287108437255,-0.8291576709618734,-0.6723411741366258,-1.3798938964298875,-0.6352018322673558,-0.6551084849358494,0,0.0,0
20.758000000000003,0.7724263138991402,0.6103298875997569,0.8200345178482815,0.8488652177962888,0.8083404834505288,0.516434923559786,0.6698966013559965,1.18228726816235,-1.0723834215249144,-0.8241818040743792,-0.6124668098231731,-0.5432091523306241,-0.737728555248937,-1.3127035612111382,-0.9638689822365458,0.1353235549946167,0,0.0,0
20.858,1.080063171196722,0.4968612293484837,0.6361847811829061,0.7836131442851256,0.4352670888318777,0.5626708503993815,0.5300778220837414,1.0229532220232103,-0.43689062270787005,-1.081960524980572,-0.9907350510135237,-0.7209064389113135,-1.2072029638214457,-1.262208097285931,-1.0957149552273182,-0.3374264818210776,0,0.0,0
20.958,1.1119840297344104,0.4375575551516084,0.49271415342451097,0.46841760659112075,0.36898713866603444,0.5053577153580547,0.6406775453019666,0.5973936974997305,-0.29463276534035227,-1.1943885383925632,-1.3421797028008002,-1.4931612860458994,-1.2698115900443288,-1.3151283868924053,-0.9306593476685832,-1.2616319267260383,0,0.0,0
21.058,0.6197986550634146,0.4288475506849337,0.40785749919016706,0.2802300171703125,0.5200501617216216,0.49688711556129467,0.690528912514824,0.4997388454353881,-1.500819164470791,-1.2159374176922924,-1.4947090659363367,-1.8736039990531954,-1.0739437800058682,-1.3082699006015486,-0.8676312854079056,-1.4838364177920669,0,0.0,0
21.158,0.4377212080771044,0.48866607138504037,0.4963958107901296,0.4486964401803048,0.5683862687114979,0.4574978943069418,0.7086546048837858,0.5232730474281361,-1.8878381813734406,-1.1121832669490912,-1.2957278582298406,-1.5205675522813664,-0.9945904515963679,-1.3528685049056985,-0.8444661975053244,-1.422932073861191,0,0.0,0
21.258000000000003,0.6810901329389044,0.5849486043487269,0.4123655273691973,0.6348176038221289,0.42097811742111413,0.41647459661217173,0.7034942410220134,0.4843061809665352,-1.3203516217703524,-0.8857217748539513,-1.5417801645745812,-1.0321182381021663,-1.2183393932256767,-1.404393702847819,-0.852370052462714,-1.562725806035226,0,0.0,0
21.358,0.7336954898353639,0.5180115821999614,0.32735871911513037,0.609367589180495,0.3135404425826351,0.6837260180950462,0.5907870164680453,0.3267441868266557,-1.1287560450514766,-1.038279799524483,-1.7057349113476217,-1.1152903905360998,-1.3420083663633287,-1.139330022683456,-1.030561547259079,-1.9831254001018201,0,0.0,0
21.458,0.9798416030416058,0.523263042888347,0.6214327768888743,0.4254835306157542,0.39996524043731235,0.8356838871741966,0.8361609885531549,0.6104811473144345,-0.6757079265774486,-1.0829256455088947,-1.1153870580116092,-1.5461443219254285,-1.2282219650553945,-0.9066025187981296,-0.7737987291814705,-1.4455531897483898,0,0.0,0
21.558,1.5339299702190976,1.0446407057744782,0.8074156619863332,0.35004146330157804,0.48279793760576695,0.7470409243124428,1.0058720430800503,0.8267346355583097,0.7323790910426405,-0.1030571054180821,-0.627019174932705,-1.6946559354414574,-1.1107515870151732,-1.009241362359421,-0.4566661851201407,-0.7245419670941818,0,0.0,0
21.658,1.4796787521772614,1.1234293196022491,0.8444473153137562,0.4497842577217988,0.4604836768082149,0.5884212158413741,0.8449331145915111,0.6031524332184849,0.5919471126701235,0.19555536744746738,-0.5340299167836166,-1.4706564059950116,-1.1420956006663547,-1.2190999973744177,-0.6627291007335259,-1.4451388660632634,0,0.0,0
21.758000000000003,1.0603579847553763,1.0777173347928746,0.714500756436935,0.5063468634199642,0.48455702812449236,0.3733748463361535,0.6922398893327087,0.29633987053667094,-0.32890313964971984,0.10205330259700403,-0.8657254895634301,-1.3162303723973543,-1.114491932220473,-1.4710338919959272,-0.8704520247239442,-2.0023402913469,0,0.0,0
21.858,0.9211981787507372,1.1548883870823554,0.6684847284933606,0.5765364813416082,0.5160138784194226,0.4362673943483047,0.6527200754924115,0.48350875747954114,-0.6679865603671646,0.2427674772858603,-0.9628132023927126,-1.1670315372234938,-1.0701117265319442,-1.40508504039088,-0.9205954641962242,-1.5614935195058897,0,0.0,0
21.958,0.6823735095948562,0.7544386114069449,0.6452685787600844,0.6382681491809864,0.41632147295401617,0.5036887574133891,0.7901177660893189,0.4693070971572661,-1.2745189051425676,-0.778111044229621,-1.0619742431843184,-1.020736443592712,-1.2073904525179073,-1.3040865020205632,-0.7374118304548635,-1.6146090514261449,0,0.0,0
22.058,0.5353397359789258,0.3865851080614917,0.4146039975803837,0.5421211707991597,0.4690406047930995,0.390376181352789,0.8405276757639235,0.35118475343663774,-1.5944861493124418,-1.3281573665395638,-1.5395675879791069,-1.2647552979672922,-1.1458237611193085,-1.4424586796337155,-0.670360727883324,-1.8627927940318294,0,0.0,0
22.158,0.573253812834293,0.5595782381352834,0.44934170269796964,0.5259907576715497,0.519944113954743,0.47065818345887867,0.8981273012713513,0.43948505656847014,-1.5028186045701928,-0.9572335131233171,-1.432462778552409,-1.2892837940335837,-1.0689105319450645,-1.3714334867800548,-0.6175939466976582,-1.6414749131170698,0,0.0,0
22.258000000000003,0.8007793746135984,0.6772110861469374,0.5452863643495007,0.5001898436760263,0.5728487733009301,0.613927709753246,0.8723612573133815,0.5851152434567659,-0.9986810191773083,-0.6793517573495419,-1.193462617139121,-1.3888802919851617,-1.0321347059272497,-1.1806197432865986,-0.704278188215168,-1.2950617237566713,0,0.0,0
22.358,0.934400095517956,0.6746956605949248,0.6089567417131818,0.28461927915708546,0.7569872497038154,0.6224255608641662,0.5815559740895334,0.5245904606547991,-0.6212382979303437,-0.6952707514029859,-1.062327298590904,-1.914408593949539,-0.7928164535740129,-1.1644451748708584,-1.1352641149878442,-1.5102329445425338,0,0.0,0
22.458,1.0020289441040482,0.5005735085308903,0.5382522469412738,0.2488520165942832,0.6521153622679056,0.5901055820960766,0.32715636719345415,0.26019516269830595,-0.4730932675675617,-1.126860237352671,-1.2488556819159815,-1.955612014297439,-0.9576488313305879,-1.2035722286081048,-1.365571864636555,-2.0911765766755623,0,0.0,0
22.558,0.8399363132194476,0.5839890166129285,0.5901248707586088,0.3816358622145697,0.3542061999261798,0.5882541835157005,0.292673056100594,0.23534484127352465,-1.0211204312615605,-1.0011296945913388,-1.1539391408075785,-1.6223842556055348,-1.2893010897531334,-1.2023456283955034,-1.4092413754913973,-2.129233507939783,0,0.0,0
22.658,0.5451141742495778,0.7544571642739173,0.5726122538280238,0.5425921687677037,0.4276364670775058,0.5820392676743189,0.3671317094766865,0.3204324051529524,-1.6342686645170765,-0.5558070850528927,-1.2233796866557882,-1.2566850980503148,-1.2436580913629207,-1.206890233095612,-1.335113703208065,-1.9202290678042548,0,0.0,0
22.758000000000003,0.6709189743995171,0.5575345349137708,0.4617355630175669,0.5166825913264838,1.0733893972319464,0.5726447702806607,0.5431435947928518,0.3610688650707307,-1.3382218988456762,-1.0675191527941919,-1.4291273863185787,-1.3550476399779119,-0.49659161890210257,-1.227405454846339,-1.0829360276366349,-1.8088271878858133,0,0.0,0
