t_center,rms_emg1,rms_emg2,rms_emg3,rms_emg4,rms_emg5,rms_emg6,rms_emg7,rms_emg8,mean_z_emg1,mean_z_emg2,mean_z_emg3,mean_z_emg4,mean_z_emg5,mean_z_emg6,mean_z_emg7,mean_z_emg8,channel_count,frac_active,global_active
0.157,0.47104279938177324,0.8664193317588307,1.4593556753054349,4.3946905940712355,11.65311015840243,8.220952220323706,1.8990267629939883,0.8007920411609939,-1.8361628235709577,-1.544072984481819,-2.202953625804341,-2.0390328199096066,-0.48951415584591407,0.3944254301911013,-1.551611284760741,-1.6750505013142558,0,0.0,0
0.257,0.9181653068829088,1.2203426378387554,2.648394627548874,7.024693669977593,16.280114974951893,10.808215912401199,2.6193374646505028,1.2376139862537336,-1.4010700775641047,-1.2733098379195025,-1.0675163460027843,-0.5808272194429048,0.9345388616684527,1.8456748122560263,0.04570391533116443,-1.055530173303482,1,0.125,0
0.357,0.9833109935806964,1.2693908766110493,2.650712746525311,7.101436443924375,14.653996160469084,8.483134018329753,2.1624630408996093,1.2069391298893755,-1.3198144642315293,-1.2637070750961361,-1.123741275857291,-0.5747765336836299,0.5164415134666278,0.6970875229099047,-0.9228768894381186,-1.1511217822639384,0,0.0,0
0.457,0.9642873587500148,1.0809651753622895,1.5115255381980104,4.767214170999065,11.92148527075123,5.292090089396834,1.4769651169503606,1.1189853843413404,-1.3746837657125268,-1.401574499857357,-2.1037604796801506,-1.7182183594289981,-0.057901981216727,-0.4276503330608478,-1.9194852481823552,-1.2785850106156889,0,0.0,0
0.557,1.2527706765741573,0.94093401225667,1.0330228768476843,3.0956917585664265,9.441168246226404,4.503382837094861,1.3406750578522384,1.3087722884547683,-1.065540317078408,-1.4764725192554145,-2.375181652021503,-2.3478100606424848,-0.7540314629831878,-0.7822050983354325,-2.1285554958962165,-0.9992275053381583,0,0.0,0
0.657,1.3306971340896272,1.6323021729550788,4.225849637992023,7.124047326551898,7.734656518970172,3.994502925669422,1.1101422430371766,1.1640124493545332,-0.969235085030441,-1.1112298756130143,-0.4251447901288022,-0.9146888136298428,-1.1057740221562724,-0.9899651460282131,-2.500001536331321,-1.1687786748602917,0,0.0,0
0.757,1.8229952718610065,3.03732431017536,5.540431337070537,9.657797197403742,9.558123669368639,5.332437950175437,1.8579456561652694,1.7652166963459395,-0.5156309414337737,-0.05222552735312963,1.1302608907706397,0.5936423933558965,-0.625686027557082,-0.42334197538369833,-1.436449743584451,-0.6014173742822077,0,0.0,0
0.857,2.922991201886107,3.7162237535435,4.63413951008887,8.590453117400543,10.096258183144826,6.215097714101712,2.5838167085357706,2.5598310490929017,0.612376956301343,0.5852369264126203,0.40906850357430846,0.13196924738334195,-0.4655111835883291,0.012093230177168034,-0.02129096342142244,0.5425825713720549,0,0.0,0
0.9570000000000001,4.089713260592674,4.4472248180203335,5.678179152345976,8.334255958460112,12.574551251934793,6.249922392790366,3.396854920438181,3.071281444744934,1.8272701495516888,1.0695209807275865,1.2359256704316377,0.030843412956833977,0.0410957701655553,0.024566337099054578,1.1872315447667867,1.185790849787985,1,0.125,0
1.057,3.847391016816427,4.298347430766669,5.582280430181746,9.802234954536717,15.951933089937846,6.679324512758815,3.4696050839131223,3.266395913740968,1.5423788030479844,0.9401730196844322,1.1881678505956104,0.727133109151769,0.839313881391041,0.19005492242692928,1.3183743878893701,1.4374655414268207,1,0.125,0
1.157,2.7319068771960895,4.050049085921502,4.77437209291619,9.878978050650167,15.573242521715667,7.1691411367014695,2.688450773392686,3.033807004411808,0.48241774761422257,0.7871128061955579,0.6405542984993071,0.7608512431806052,0.7241609274581587,0.3764322549445155,0.13324403104360918,1.1462918462879785,1,0.125,0
1.2570000000000001,2.9112659815644575,4.631612212045631,5.2493470069278665,8.161802801928674,13.17179614843905,9.40420091081548,3.431889320069258,3.5351016894426075,0.4933365945991106,1.179054517798277,1.0499959315590424,-0.08408878554081499,0.1300080871697155,1.0942407692071343,0.9766941866066288,1.583183474666385,1,0.125,0
1.357,4.221963679520837,6.0247566162134385,6.439375278837375,8.952527201172689,22.213512280685762,13.378634535868358,4.7842375113098745,4.520039567555198,1.708513827783071,2.052337098237448,1.8489905015202992,0.22731837695727514,1.8547769879924547,2.714118665797446,3.102898431766403,2.707396632327058,7,0.875,1
1.457,3.7780451020192793,5.307658448223345,6.113291271875729,9.825212459489833,23.761190150718186,11.843614087712789,3.975850852588858,3.6731701446052663,1.1197373583082721,1.2405562838258692,1.5292371781522436,0.7229562422243954,2.335449098843516,1.8477455647716106,1.4249074584665862,1.34960357893421,5,0.625,1
1.557,1.5262905873484085,1.920333414029706,3.509514931176047,8.964699073098446,13.528389004815587,5.457223181020809,1.7963614275543758,1.4467750641029378,-0.7677609019561438,-0.7722548996803578,-0.30961530251942293,0.35084367357136725,0.001580787717635712,-0.4934282963218367,-1.2643098706531313,-0.8368331731964125,0,0.0,0
1.657,2.0246868501843283,1.9050751795647118,3.628460465447199,9.877564026355175,11.452349315163788,5.669429192787508,2.279411549409455,2.3290875825589343,-0.35735580772045206,-0.7849481931172018,-0.2256814875701417,0.7623046786715515,-0.2646273537329505,-0.3971661838023839,-0.5874338940593434,-0.00837623097418846,0,0.0,0
1.7570000000000001,2.5849583601774415,2.468369052756274,3.890371535858274,9.782022529782756,18.01768272555041,9.50574772587592,2.678105809435543,2.8905007078717153,0.33169346000599964,-0.35686860733249604,0.013044321555097684,0.7205853818983317,1.2360970600556898,1.1532305580090987,0.12697386517224718,0.9169070705910336,1,0.125,0
1.857,2.3262115509713213,2.8878162471965063,5.3516637972547,10.430274974317156,21.447961974940576,10.105688194642005,2.685965009283369,2.481189870447212,0.07400099003126955,-0.023688579663575605,1.042367024246853,0.9643286988983842,2.1155703331786038,1.525849445613895,0.14651658052292324,0.4454983972974055,3,0.375,0
1.957,2.1709346761079185,3.0033766316876673,6.291033507250076,11.244004672251602,18.651313337826313,7.007292786498306,2.6921346489866598,1.8889648193221955,-0.06767165490615505,0.046761209237199335,1.9639980331172517,1.3309036959981153,1.33012274519406,0.16904356058520015,0.16404409270453113,-0.3089085136858568,3,0.375,0
2.057,2.9954104424057473,4.265234601259948,5.639849671644421,9.278167900287835,12.001866041471192,4.060046010189486,2.662428871735047,1.9224368298928682,0.7097162387856272,0.8660249823638768,1.4334955823706785,0.3496670624373033,-0.2735272034647248,-0.9480495126771784,0.11398953652885498,-0.28404112634090767,0,0.0,0
2.157,4.796982440685764,6.914160762297079,8.832737377275356,14.55414017263874,14.206789164996733,5.954559431979975,3.9737020091899717,3.8729543820693677,2.4791855393900533,2.826944557321938,3.614925779642654,2.2690226458350704,0.1806609615712079,-0.35000247035249393,1.879257562239287,1.84783154570966,6,0.75,1
2.2569999999999997,4.964726587493479,8.108176447398897,10.004919464994256,15.659036523107934,17.091559234387756,8.587118118260646,5.168348781774483,4.547148434583269,2.666724466091091,3.827216613353399,4.903835119640815,2.9690349280523542,1.0800098991234863,0.8839924943473992,3.9941990800970286,2.8990133055633454,6,0.75,1
2.357,3.7162609207252304,6.246621867725231,6.649789470300116,8.657848407346007,13.629979101354264,7.366015138661384,4.22158827369713,3.2891701483707863,1.4781755993688372,2.119993849384081,1.9243124774239058,-0.1849976235077197,0.26985355197756206,0.28369562827250505,2.100651318120343,1.2521452584969308,3,0.375,0
2.457,3.055393864967782,2.9392031487461847,3.991758802335406,5.377709299301789,9.221601294768115,3.6004631001739176,2.000213850655272,1.9650652347186073,0.8186086192307309,-0.20828737538783532,0.0865051379372811,-1.287643577759294,-0.7695802640810532,-1.181834293898872,-1.1857086596153752,-0.17392418531745832,0,0.0,0
2.5570000000000004,2.877095752045902,3.3323816561898503,4.568653584393676,6.0295024354734625,7.753468020731341,3.1363021916832183,1.6227624032823929,1.9777009403388817,0.6018015684344019,-0.0034859877034299157,0.4560494691470517,-0.9952633531205686,-1.0399071004358655,-1.3828577645118214,-1.7265821776523318,-0.20645237239857325,0,0.0,0
2.657,3.7209278615704426,4.52991750274434,5.383020258481367,8.456446352140023,15.070430865162788,7.389188929910023,3.16638258034488,3.3030078970079026,1.4274737583678225,1.0171226059021983,1.0841200944753653,0.024993785047313755,0.42137918975042654,0.1629256919148625,0.4993501774472646,1.2595987425156863,0,0.0,0
2.7569999999999997,3.3369159757685263,3.4289369787489608,4.466878046317565,8.707093944796242,18.169882253652712,8.359284538005886,3.351011996570259,3.438230978842042,0.8814121387140677,-0.009463669230539479,0.24069375002444454,0.03747569181898771,1.2783410723049702,0.7763511400778755,1.0240587048649838,1.4874315212629887,1,0.125,0
2.857,1.7652124381827807,2.55692767421858,2.7899858725651634,5.149576085452481,12.897192611347798,5.351142521010326,2.650994472543571,2.259578711209646,-0.55315762792689,-0.4278653291271219,-0.8787955939754513,-1.8985942674896044,-0.14014019778468784,-0.5040286579363515,0.036536913418396114,0.11939239542378621,0,0.0,0
2.957,1.3129345947664892,3.658108080318253,3.5941415364237694,2.462911091350975,5.572599745052864,3.4613240267056575,2.7027332653325447,1.8531137947442824,-0.9524638740518171,0.5266596082021948,-0.3191764422269413,-2.687273903424858,-1.5443379353255842,-1.100404459687965,0.11626722665160946,-0.2789632610073315,0,0.0,0
3.0570000000000004,2.0668702322669104,4.959602411376103,6.263737547231777,6.428217715113325,7.13850592071349,3.884197111506473,2.5107446892269865,2.2527027881556307,-0.35176707147015274,1.4474850582952434,1.7182666996485705,-1.193011567240949,-1.2916710550506434,-0.9355180510862177,-0.17495997051073592,0.1600621953164299,1,0.125,0
3.157,3.0420641433946742,5.726602376175353,7.440111914706037,9.038248734866116,10.396327726731965,4.642646064293557,2.525016075586503,2.520474328640555,0.7844450912929263,2.0800580634672254,2.8972322019717525,0.23232787801053112,-0.4556239870588733,-0.63662954809753,-0.10999773206373717,0.5168150411913897,2,0.25,0
3.2569999999999997,3.0097490043742328,5.781046395119642,6.209719101531211,7.366727024816599,9.068165674054113,4.419986871408738,2.4786036636448645,2.1922819941181113,0.7606926061713513,2.101817909830427,1.7576689888260564,-0.6711205850917195,-0.8419683770231081,-0.7343309016064579,-0.1777793797596072,0.10871224774894594,1,0.125,0
3.357,2.329829136923786,4.675457506960378,3.7838506432343726,3.429577823218498,5.291107228779192,3.9260679388756894,2.4187194091409108,1.7248234582008726,0.0665893222465552,1.094134544537299,-0.5693066136248334,-2.279493961094362,-1.631164811619049,-0.9173999306538658,-0.27917365084016005,-0.45800713329093556,0,0.0,0
3.457,1.8410909611714399,2.5579813067731574,2.521352400801632,4.702646380358006,9.798263144504237,5.411181264428442,2.1133474425766083,1.3281714463655199,-0.4072518632016445,-0.30607076385621373,-1.28821782300755,-1.9053997551974404,-0.8081718245629304,-0.3637912365711469,-0.8334203191756802,-0.9516259358136112,0,0.0,0
3.5570000000000004,1.8030823297267562,2.044662399660607,3.057865184625646,7.5979980726220715,13.981843498989582,6.4439658617875715,2.0971755416353637,1.2965544521583383,-0.44403956914709913,-0.6359937534398843,-0.7344879406725908,-0.4807964413682849,0.37800118610045297,0.097983187374691,-0.8674921167321351,-0.974638890176905,0,0.0,0
3.657,1.6210063006713071,1.767304494037883,2.5088432117589576,6.753541686612776,13.630747573591849,7.509699155943465,2.383861275137614,1.241882728989376,-0.6823084222869407,-0.8832360615198966,-1.1758725537764971,-0.9311625025936557,0.32439697322898287,0.5068927508307507,-0.3956741684341748,-1.0691996135021704,0,0.0,0
3.7569999999999997,1.1429768798735447,1.4737323033673912,2.3719360334470827,7.510827687025516,12.222348596600389,7.294838699492814,2.054799820848175,1.393721609632406,-1.1392321014880893,-1.1060108646256048,-1.2443085993841265,-0.6545910693016446,0.014919620674617823,0.3865660549151852,-0.9082843601406454,-0.9440771265015867,0,0.0,0
3.857,1.2364287888504681,1.9924115934998754,2.3490870505756622,9.243654983995684,12.088301223464406,4.9664456891417945,1.5768361279882073,1.5350702280739432,-1.0352640167251352,-0.7394643528297558,-1.261266203050147,0.42067200842412983,-0.012914756809936498,-0.5654525235623851,-1.6271264547761788,-0.7175397085987136,0,0.0,0
3.957,1.7538910233783025,3.2909446396061024,3.1803735317953956,8.382965865490734,11.008853141732667,4.132374992438117,1.7199796494794264,1.5845336766509936,-0.520984052535282,0.20568223142890757,-0.6912761917184642,0.08551427227996612,-0.2734539630231805,-0.8367854108711352,-1.4387464754007875,-0.6403578368322328,0,0.0,0
4.057,1.8372468743413717,3.542923155822936,3.271284574098994,7.33442409936295,8.403599728354978,3.8364244548788484,1.7123851222728854,1.648565039309055,-0.417057798182949,0.43684990691093145,-0.6348087434122374,-0.44266111811435166,-0.8964967695480356,-0.9810767773458628,-1.4484567573175164,-0.5476319813681592,0,0.0,0
4.157,1.5065962729891111,2.785489895975577,2.434576205898133,5.145776923924663,6.6505710453773315,2.551295970499497,1.336008312156888,1.4625302749587927,-0.7435204909553997,-0.11221576635604653,-1.2875031007808082,-1.5041522418579063,-1.2504338415997598,-1.4740052913664472,-1.972287379750767,-0.7720128220886912,0,0.0,0
4.257,1.409033349513116,2.8810846222247015,3.051539512453325,6.669063220239072,8.060980924728652,3.0678023042865745,1.6968539135921124,1.7608058912665878,-0.839927868367553,-0.05166414595981304,-0.7806469865994515,-0.9782340725208677,-0.9511345706865526,-1.3088279668636573,-1.440045948180134,-0.43493193456487367,0,0.0,0
4.356999999999999,1.41130976792197,2.7147504723124785,2.698366900089135,8.11869640239768,10.991080868081584,5.412792627889186,2.4211328859952754,1.7848397836658003,-0.8364199739955772,-0.19742389947511024,-1.1541905218286133,-0.0965170711557214,-0.3058773086036547,-0.4393262653192246,-0.34418108136579806,-0.38816004306233165,0,0.0,0
4.457,1.8104158294382382,2.7319789486099784,2.2202865821256568,6.868280626725835,14.352769174815922,9.128845103258037,3.234957673123811,1.839127183642761,-0.4888507581627947,-0.17505284534983218,-1.4424093785376249,-0.6211833897514316,0.4653034184736711,1.027120242571582,0.9377019156531545,-0.3383765168633432,0,0.0,0
4.557,3.0728781339758884,4.023067366164531,4.65770825874158,6.754369802102221,14.239982778615866,10.162082244735043,3.229738352267292,2.6749510200810445,0.7161821806943756,0.7387004441906297,0.367810568624797,-0.6628638258371539,0.450832466169402,1.5772758855096178,0.8663173443673375,0.6325719001486325,1,0.125,0
4.657,3.556117652223799,5.257216813127452,6.401779867395758,7.259568554812871,10.443380137989402,7.996542922246255,4.15085279961664,3.419303674931593,1.3311212184338619,1.6782693437218146,2.038787190198078,-0.4392752247513269,-0.49523049735447006,0.6294041549071909,2.091909383675073,1.5929229773433333,3,0.375,0
4.757,3.033893800337855,5.201955009880194,6.073247165650733,5.586137236274846,6.566359029156299,5.4067613618055095,4.274366916352757,3.4478316062713734,0.7877286346658284,1.6467113372718525,1.760599719879179,-1.3973368730720652,-1.42787982018263,-0.45664594133540193,2.3907179342459375,1.634773920043283,2,0.25,0
4.856999999999999,2.7734235522760065,3.7759412355711364,4.445602862741389,3.6560468508134494,6.472685794599564,5.098099447884314,2.99425617579384,3.159336121134741,0.5451295586276534,0.5299729429793228,0.3819448048338412,-2.1127782458482267,-1.3838403275510518,-0.5051512377280482,0.54844376958044,1.2959350643604028,0,0.0,0
4.957,3.320344831733627,4.24079329527884,4.025871980047599,5.1209994332201845,8.898944129401876,7.04704539327293,3.1473046463423766,3.1251449919851604,1.076784563445925,0.8245359227788086,0.1037158994825852,-1.461536169462313,-0.7474163205997434,0.32064895016328876,0.8370974082030698,1.2539605253244421,0,0.0,0
5.057,2.8865086600997336,4.192733131576525,3.983989919659853,6.668888755172073,9.483638731571165,6.963998984598005,2.876745130040717,2.381106956764466,0.4142994594262107,0.7533836851568683,0.06333667168289672,-0.7128906816688854,-0.5995691086545759,0.2534701751098389,0.3202477264948248,0.09128786317651126,0,0.0,0
5.157,1.996280301797158,3.7376053278701793,5.223394634944894,8.923852092501974,9.437083123677857,6.14479304491974,1.814340953191407,1.4399392638193809,-0.37563129002168083,0.3998832632234741,0.7852411541068867,0.2402639902207439,-0.6168433740356641,-0.06354327904145048,-1.3186030093750538,-0.8397121787414923,0,0.0,0
5.257,3.1755011565790534,5.504086551922554,8.137728535793016,13.154441096655807,13.178429861071976,6.586841356795495,1.7678995608748964,2.2899986191131836,0.8113619622249919,1.7467555634109289,3.2633827405162656,2.109967506704769,0.13474916933325604,0.1462869220920427,-1.3775816687912883,0.12909461426283358,3,0.375,0
5.356999999999999,3.23068345939113,5.022216623998121,7.551985181130083,12.720999089363286,13.984677818599287,6.048056290236708,2.1044790630224304,2.639591075562887,0.9429721324693368,1.3520964483909685,2.7210355447340766,1.8673885580163314,0.35426433825553477,-0.08295854904245113,-0.7828706921241343,0.6595184719686091,2,0.25,0
5.457,2.836463859198633,4.226084601518834,5.526668688935712,7.307458647814293,9.73843181306626,4.505621610030118,2.259125377593542,2.6648467053819993,0.5823930177109158,0.9033082244874832,1.326192088580277,-0.6292473431844174,-0.6172239598507965,-0.7021701241256414,-0.5215537952615196,0.6840002361134602,0,0.0,0
5.557,2.7206344269446836,5.790352635843078,5.8232012131062945,4.611421600026346,8.677242689765734,4.51757482135956,2.8497375315987603,2.747260920120078,0.41820703136200876,2.0913276283695668,1.5745779429237898,-1.7699383875036996,-0.8175729767844524,-0.7294335046347973,0.3075191078415723,0.7665466942967144,1,0.125,0
5.657,3.20962217709582,5.999795195431208,6.676553372699862,8.22732811073034,11.574774747672592,6.625922466899764,4.277478306715728,3.505443641728419,0.8421475906870626,2.238482350795513,2.2388874422780964,-0.35988473456325076,-0.1745890321171118,0.06928931310481386,2.424408979063253,1.5863800888528587,3,0.375,0
5.757,2.9664184284259996,4.2736571632972655,6.561949241224483,9.246829969023178,10.26383012333551,5.851118707132201,4.258708395707438,3.4644191966875577,0.28168389573028463,0.7813389691624157,2.1017845599005347,0.36747996460791166,-0.5785787686267562,-0.39675960194412,2.423142295239302,1.5354464738082072,2,0.25,0
5.856999999999999,1.3161069344777432,2.480596334223684,4.572255318258042,6.590259557091372,5.819617290365374,3.294581064989662,2.628638458641199,2.1569846717378724,-1.171405285476181,-0.34412277729860297,0.4683727921735687,-0.7953275541123793,-1.4492912794360473,-1.1956652436314896,-0.07719894856898321,0.029730191469559845,0,0.0,0
5.957,1.4918985425365874,2.7276868993793304,3.2163311953868767,6.885052212740223,7.286898380104,3.5541918816185025,1.7566180479784217,1.5711393306391794,-0.8508149806692838,-0.15330830263356196,-0.5914804928093714,-0.6645624938473429,-1.1762249199524548,-1.062186489660119,-1.3204932839348376,-0.642803543601341,0,0.0,0
6.057,2.5745108457603663,3.1914027668286797,3.405096298399748,10.249533894484447,11.016872548925447,4.65832094851736,2.59645168218967,2.968892955203112,0.19913131785800225,0.2076548587085855,-0.5736083931817861,0.797239979109803,-0.33643482478913667,-0.6985103900363738,-0.2760431638644122,0.6606128366500027,1,0.125,0
6.157,3.7078624779286518,4.199714629618577,5.246427943800505,12.322146342270715,14.604181368856638,6.131273352565587,3.1508916258720894,4.234322525665788,1.4591225990204748,0.8952766091352065,0.9228883654380479,1.8335596120544786,0.49604225037093314,-0.0650158934282578,0.8117035462836746,2.54289479911297,2,0.25,0
6.257,3.223449729184076,4.19641111518266,5.4814235596725664,9.972168677292,12.609155535527764,5.914019410467483,2.930133804471209,3.7295870045375823,0.7045017288007924,0.8802297180304433,1.2572543284072673,0.5613940634652176,-0.11426571968294641,-0.1361355439619714,0.5258717167533823,1.8364395595999512,2,0.25,0
6.356999999999999,1.6319621765842065,2.786635158507407,3.611132430126234,7.06988874909939,10.445070244430145,5.349333288687773,3.061259771948143,2.290126473866841,-0.7894946835034328,-0.15458660318084244,-0.38320685184622416,-0.5306728152631844,-0.4793856909995635,-0.3544084390929814,0.7265695716054894,0.12823356724503313,0,0.0,0
6.457,1.8660680338284192,2.271786544035277,3.2145697387976537,7.1896659177396085,10.042736572996754,4.649494923175583,3.154891925126378,1.7911312888255284,-0.4909803112717207,-0.4882311570223714,-0.6880667016610265,-0.46280489129257896,-0.6127237479669493,-0.6722808886076248,0.8662870072978295,-0.4024980759646025,0,0.0,0
6.557,2.705773881407116,2.5141279448715506,4.348592260331254,6.08877077356391,4.901460786170677,3.2498043756303043,2.8210747517584833,2.323313717602766,0.43942275699817557,-0.3096027778352369,0.2610611267460747,-1.0170168344262662,-1.7377201595928944,-1.1899165898595445,0.3045895505783412,0.2140363016340828,0,0.0,0
6.657,2.4100827070637463,2.2717971806903385,4.072995602441275,4.418081823516255,2.935663945083496,3.1324387400994005,2.927068297872788,2.551793650272398,0.03624939932266115,-0.5042396050676825,0.043082900278324746,-1.8207705976446564,-2.098650260611726,-1.2385413327028711,0.427327524555868,0.5643245103962738,0,0.0,0
6.757,2.4208123499527145,3.5451208289986345,5.08144132242418,3.544033451998465,4.440975552428729,2.5917812924290566,2.769145345968446,2.3772932301455243,-0.0028464918723748677,0.2113517766666811,0.7681045691818875,-2.147870738661271,-1.789311582072233,-1.5378009881690633,0.0035903040534955855,0.3590794541099481,0,0.0,0
6.856999999999999,2.8966959840964805,4.06621922317566,5.308560116974623,3.1197436103485914,5.22119915747311,1.6829858681098153,1.6281091594598274,1.9801264134384957,0.6086672132653187,0.7247153621884785,1.0030166475478934,-2.3903189854043663,-1.5751728233181628,-1.8422123642713757,-1.8838675908584996,-0.22393365026285555,0,0.0,0
6.957,2.5631429236572476,3.3631148532858277,3.853698522930913,4.760078262514485,4.853851628841192,2.8757548881589376,1.158748866712628,1.3696347993001268,0.3238955712123426,0.28177630621234434,-0.061253520142714644,-1.8137966108928976,-1.6678157405112806,-1.3931758950680888,-2.339660115794011,-0.9387252165399069,0,0.0,0
7.057,2.467598645968069,2.925132033160443,3.286475611729033,5.5402889098368195,6.543903680371739,4.14237205832932,1.827913490848626,1.665520334814498,0.24492084091324032,-0.041750006956523596,-0.5264677833894206,-1.2989377940736984,-1.3274593014532876,-0.8320057088936244,-1.2868168284039427,-0.5871200553340273,0,0.0,0
7.157,2.4873768768842854,2.3754966109330358,2.9958781860967805,4.837466648812194,7.76725310871872,5.386472338931664,2.0187856341646286,1.9276270576837673,0.26357349438829447,-0.4363333451403369,-0.7666828507377362,-1.5763854414217573,-0.9957668030326403,-0.3573922307893603,-0.9022687882184514,-0.19252224304946092,0,0.0,0
7.257,2.179232959099048,2.355406289977928,2.8827314783838163,4.1550581930811035,8.306952768467621,7.219055148183798,2.0387356007967417,1.7861992407697773,-0.07569134560059494,-0.43190134230016614,-0.883868164573502,-1.9225098423767566,-0.8764658157738892,0.36107440326626794,-0.8681523187477784,-0.3668312738610885,0,0.0,0
7.356999999999999,2.567713514386273,3.449611934814378,4.234420591529432,4.694213962809251,11.015333888248344,7.820484823799196,2.4168161882541304,1.7434240048791174,0.2440298183214958,0.2928954557099182,-0.019253067782379875,-1.7721678235314506,-0.3206339071256743,0.6506602950515278,-0.28458974645419566,-0.44126848727142043,0,0.0,0
7.457,2.7328421051619225,3.5846973889254925,5.281578838631806,6.032792460958023,12.763393558021024,6.728564362764404,2.9549030289279585,2.1371891572827413,0.4331926020219612,0.3989430708260118,1.0801981765787059,-1.0608064547616352,0.05995434874097951,0.16573911919648224,0.5478153534840068,0.006685159747798009,0,0.0,0
7.557,2.1291904451408477,2.346004091469904,4.042877663869032,5.00070061559181,10.11256451534856,5.245796978388193,3.1526910228558935,2.4859660637787306,-0.1458689608948822,-0.48295523171109683,-0.04797293834019293,-1.559484734852602,-0.6368432545132733,-0.45621088063432713,0.8900615599298789,0.4898462542407335,0,0.0,0
7.657,2.056133116201695,2.1548438722220085,3.777436477837361,5.544667887590049,10.729471867473215,5.335204519119811,2.7326554955262967,2.1342453243735604,-0.1894728879240765,-0.5710471904985776,-0.2258911317713846,-1.39071662366886,-0.4940901707533326,-0.3879535202509202,0.18904304466307814,-0.003964446362291557,0,0.0,0
7.757,2.228991377552225,2.2331895241566344,4.96636304206831,8.689265474214219,15.684562951423251,8.263196232551685,2.696542467155918,1.7638865349506005,-0.006144623487022545,-0.5072259565686499,0.8861111716792933,0.12089384143463122,0.765233395336818,0.7277085367545308,0.12413389414818125,-0.42129220650093685,0,0.0,0
7.856999999999999,2.3281907135718494,2.0139115396974634,4.2403943579775865,8.584579842695433,14.10845934409947,8.595102130916885,3.030023990672523,2.0387608514611744,0.09985100259914485,-0.666527578563575,0.10935966149364709,0.015226954971525042,0.2529709319017965,0.8414506953412149,0.6851645844980385,-0.07864316082168603,0,0.0,0
7.957,2.4533027215854095,2.0644009241117067,2.3338566171429287,5.341461394990246,8.061358965273046,6.272738685595447,3.2317171693869033,2.433138435529972,0.22826412669525104,-0.6328815267720013,-1.4064198648798019,-1.5233163411053863,-1.0881172679020696,-0.04534100470960947,1.0111413350784408,0.4083782259283626,0,0.0,0
8.056999999999999,2.8142622945751405,2.3569018511562265,2.0074526506612633,3.3183367255326197,9.569138131024898,5.790657529396692,3.536252647557339,3.1933858463227605,0.586561260467241,-0.4339092252897842,-1.5618829455087617,-2.2288969455574703,-0.7355870580664321,-0.17944634841574086,1.4532762496244636,1.2833487396729344,0,0.0,0
8.157,2.4841355314557845,2.063964400362861,2.0720906189423625,3.318162262266491,10.394579863583658,4.564123068823798,2.768956357988687,2.8614241269615013,0.1409832182761424,-0.7294578647566798,-1.4985804484351284,-2.226971841423139,-0.45755931153582396,-0.868463070563753,-0.20400044021745126,0.6702849886601859,0,0.0,0
8.257000000000001,1.8199351007267726,2.7706413762650706,2.8624261646949556,5.069919162700086,9.82261558858675,4.760206445467398,1.8322083271340914,1.9216636091506136,-0.45690969477300464,-0.3167324538532066,-0.9736290288184467,-1.5625374794619589,-0.5984817169629354,-0.8309881201077207,-1.3445009486038797,-0.2890503760299596,0,0.0,0
8.357,2.0775136748028666,3.072915709553127,3.338108667854714,5.553425010083437,9.618340088816419,5.381034078230195,2.222308670309346,1.962429120101294,-0.1735509969986792,0.053969089614229214,-0.4551943751594198,-1.3854137480328599,-0.6850141248570483,-0.49631590244364415,-0.6014270186647679,-0.18144159309539382,0,0.0,0
8.457,1.856522681728217,1.8251894033661706,2.4875521017885225,3.400893864481015,6.2210743659764045,3.4241621548480987,2.0956019956627245,1.497627321973462,-0.49665131382376704,-0.9076555734022204,-1.2541080370465583,-2.5265433216485484,-1.4571853161660915,-1.3053600536625227,-0.7760689330768683,-0.7735810422184128,0,0.0,0
8.556999999999999,1.090884485187538,1.299950195627708,1.3733863494181713,1.5589330084066542,8.901834991249023,6.255982228953555,1.6237674226020806,1.0398439959718329,-1.294392088352885,-1.2292158513559452,-2.2471407152685217,-3.054115887219559,-0.9597926837856138,-0.3615080373368841,-1.6071491403929223,-1.2885876501236782,0,0.0,0
8.657,1.413673534746811,2.128078612285951,1.857221786174502,2.869503976187463,11.164491342343581,7.45708423113998,1.4099934804567118,1.1530558089062328,-1.0523351070013807,-0.6616592194201603,-1.9891111125074417,-2.5401615788817247,-0.2468962973493702,0.4443657118534151,-1.9157782091938405,-1.1888406847616952,0,0.0,0
8.757000000000001,2.186345001718387,2.574401359592641,3.4451876952600378,6.784882893705943,9.967533199327393,5.482461834701823,2.2434401213930846,2.029937645694557,-0.14841862863424377,-0.2763711879004789,-0.5428256286287165,-0.9379208715954211,-0.49390667665191695,-0.32279733829902035,-0.6794241527916094,-0.2154097121684937,0,0.0,0
8.857,2.407406962291797,2.1567104345180645,3.2537809087538583,7.983561870509883,11.516693864677913,5.167519564332684,2.474382548023994,2.646693852220466,0.15473250229982377,-0.6036269871204187,-0.67369286388736,-0.14200248983428568,-0.17679837640182253,-0.42357680053355296,-0.20034152292025276,0.6678124492985267,0,0.0,0
8.957,2.367629553020248,2.347806474913686,2.589422860884122,5.865737205792171,11.170260946465078,5.016686375212568,2.08055193422083,2.5514497355939034,0.1011801451619407,-0.4773862912134429,-1.1361496219186455,-1.1360094024843228,-0.2864389942173479,-0.5195537040524176,-0.794951923738917,0.508288988636999,0,0.0,0
9.056999999999999,1.919471398337636,2.791278659439461,3.317982883430762,4.305472124323673,8.079785395024293,3.9770544258261578,1.7626894752492568,1.901048005281833,-0.41670945362720613,-0.11082999008558751,-0.5051788861556271,-1.7802190002284852,-0.9373112128839123,-0.9151144173841322,-1.3443250287282373,-0.34736149171492714,0,0.0,0
9.157,1.6926193349567165,2.9041052980367406,4.574486693966921,4.837380398187072,7.300135229249622,3.5602397183857546,1.5731816894912476,1.7031259039628672,-0.6401698552104949,-0.06970766201709541,0.4400873484055475,-1.6000210691785994,-1.1047533368786995,-1.058532093819638,-1.681864124472979,-0.5940837543976417,0,0.0,0
9.257000000000001,2.688161313471143,3.724955152435049,6.478196630765046,7.761933621464359,9.329507161937238,4.919274616403137,2.359752805906748,2.7104341861156214,0.3326085979349579,0.49752590019136694,2.03151293687359,-0.35764637438350666,-0.7147243482703362,-0.5960685541659865,-0.5568588882513656,0.5648645650905764,1,0.125,0
9.357,2.6761560962858915,3.4798552748645535,6.0135652265905835,8.28829495214065,11.548329660540267,6.068727766548851,2.9364060894202186,2.7678653584321555,0.36120639746866684,0.27628155558248246,1.5713503292707585,-0.02888558257373669,-0.17069430338585073,-0.057078369436725084,0.5388354929266359,0.714419441668864,0,0.0,0
9.457,2.072473153761299,3.5473289464085953,4.661257047992665,6.767206425013502,11.620693689101385,7.369207819181916,2.944154768115398,2.2971526757663217,-0.18946044914867213,0.3349426985780811,0.6082245569965392,-0.6768232292759888,-0.13577446182638211,0.4307025122051029,0.50008454266993,0.17858789350847754,0,0.0,0
9.556999999999999,1.7934308248292283,3.6249104301087205,4.435273631748007,6.8954665563148465,10.238025347188072,7.121796850922204,2.4202106718045955,1.8139572061551859,-0.5186851034760206,0.44244892876441533,0.4176757676586833,-0.6068658461848163,-0.4547269864367875,0.29252960257248634,-0.44066156125473305,-0.6033863043043666,0,0.0,0
9.657,1.603970449822176,2.686659112196496,3.7325455470278106,7.4914638299945855,11.163779831739063,6.209501442815083,2.506481878251732,0.9235945251915153,-0.6817514008530648,-0.1643168181507456,-0.10103872922786723,-0.33878618377642705,-0.26602875573327994,-0.0228416667730699,-0.2801618825547135,-1.421526684850171,0,0.0,0
9.757000000000001,1.8587391079336995,2.6314005609574194,3.5171055013586816,6.482959841253962,10.861205141982504,6.049088331125219,2.8470674176121378,1.1898243768702523,-0.4120681622172575,-0.20220694402502754,-0.295531155541528,-0.8791972804286159,-0.37418648685752787,-0.09204367827669921,0.3943512171972382,-1.1345602454647241,0,0.0,0
9.857,1.6068674908357787,2.433310361009147,3.5884236043226987,9.184418211609021,8.12292621614001,4.572989104139473,2.4429510007780277,1.8484423136236359,-0.6908225555118117,-0.34986571550326573,-0.268731680980114,-0.030867387025332114,-0.9923004107752285,-0.691812838007526,-0.2391126573458024,-0.3802792283431591,0,0.0,0
9.957,2.3721867491844923,2.6560155457903702,7.004633804009568,16.582783752899864,15.910270249171607,9.789283583545073,2.949752390331806,2.8822588300767142,-0.08652252596557233,-0.20266663351044248,2.0777047507492887,3.503401421468978,0.449642675576409,0.9025571875626456,0.33736573588473917,0.8429428125899132,3,0.375,0
10.056999999999999,3.489899882539358,3.0360031630670634,8.27064739230987,16.242268495324357,18.699655531273073,12.136588978581706,3.8914013047067284,3.7345960517515944,1.1876105541346278,0.07325031849406087,3.2482003852414527,3.168148430795342,1.322500950573768,2.224279396890428,1.7974746866036768,1.881405957464174,6,0.75,1
10.157,2.8053291195367733,2.363406124467122,5.578507890522833,10.478706827053676,15.256039136868647,9.139224838765337,3.2184720785030922,3.019483270843043,0.09675973861315765,-0.5934290022165916,0.7351153254249029,0.7571718948880111,0.5842895142129525,1.008091870253879,0.4500095963015417,0.7036352666799905,1,0.125,0
10.257000000000001,0.8562340710684925,1.4555045459425988,3.7204338153726972,9.252080681733498,12.904147601699336,6.223255926524113,1.67541892368284,1.53535861790351,-1.4734460228125266,-1.138476331280229,-0.2071944392629672,0.4255864205802782,0.10326676793494476,-0.02389452727725886,-1.4688556002147988,-0.6857551472388181,0,0.0,0
10.357,1.0908872891046923,1.6970631822367732,4.149332055068444,9.37966338670591,11.055262506671792,4.776120096983918,1.8003975178981946,1.5250247085226227,-1.2275790695131517,-0.9356333091348923,0.22358490551290652,0.5033281600206889,-0.27389475008128195,-0.6053032017766957,-1.287619801599474,-0.6874443035903255,0,0.0,0
10.457,1.3417766198947736,1.6112722161785094,3.3847737512822307,8.659784274904746,10.357148223493493,5.557893092401621,1.8064499616903167,1.3753615900636795,-0.9166165653618581,-0.9985580832661599,-0.44114078113477884,0.09328097509680455,-0.43460240208178796,-0.3377073035794921,-1.2528973112232369,-0.8606531872776888,0,0.0,0
10.556999999999999,1.8585966230872646,2.2950852795028225,3.5237525575127506,6.836710370683812,11.386072098564423,6.808753651240124,1.8811467721794277,1.2389677024567844,-0.45372306665896256,-0.5592441053305747,-0.3348173421276698,-0.6773966894507797,-0.2255921339547175,0.20842389747470272,-1.1309047286408591,-1.0367273048029095,0,0.0,0
10.657,2.107287644073711,2.7740417576927867,4.716066172538907,9.255305749994983,11.456675522064657,5.491035520478636,1.55099578107196,1.035766551870751,-0.14689299590970584,-0.10426499019173327,0.6459670930641994,0.31350134665342005,-0.20231792093197204,-0.4072652195237816,-1.8276514193502915,-1.2745866414156242,0,0.0,0
10.757000000000001,1.9459514638923179,2.929975816486012,5.544042839324113,9.696994225945613,12.969865458753436,6.218926702727668,0.9890161312064102,1.011762142150017,-0.32760401258007626,0.00806321383907856,1.3465369964352216,0.49426021489858873,0.1017360375025492,-0.16753495055312081,-2.562168245871267,-1.3161396784977462,0,0.0,0
10.857,2.063122504561657,2.726144264166565,5.6937131649298145,9.220596159980962,16.780864633964075,9.669103707244634,2.0533353428790058,1.2751506081065738,-0.21151145604246951,-0.20874703545221215,1.4963809293342298,0.18933103372752194,0.9755826500325068,1.3049122835119191,-1.1557005679564287,-1.021813957677241,1,0.125,0
10.957,1.9070156482221692,1.6461431388827468,5.136531592732227,11.873434848106807,23.094485334359103,12.282172407992425,3.1876544667289237,1.2955885956742805,-0.36181519671586027,-1.104733625684262,0.9405992971479421,1.4059921210546804,2.281728553317846,2.356208236598767,0.8220704512735187,-0.9792031104728768,3,0.375,0
11.056999999999999,2.129373194143573,2.4791877605573887,6.877334788369193,14.865443621705646,27.870338668079533,12.267278306734696,3.156360638918239,1.7711934983199351,-0.1792877299905779,-0.6982909634996051,1.8911276056527118,2.675251914457503,3.4885935829851755,2.3541671363402634,0.7790681706561499,-0.5358071233890882,4,0.5,1
11.157,2.6534607467578915,3.5662603067615293,8.627821143755403,15.222444667127624,24.238204834566158,9.637843934508345,2.6521224353221515,2.1440642880094156,0.3480706426608018,0.3244985421837007,3.4388284572352186,2.712773137666271,2.397107076951016,1.1806774064345689,0.01429036224735678,-0.023696980326930007,4,0.5,1
11.257000000000001,2.223459111227482,2.8114519278373065,6.655230337045753,11.019249857448665,17.06152530438102,6.4170631436879395,2.898947150302809,1.6607718415959212,-0.1913006502009388,-0.3407039599411798,1.6510551089086978,0.7745511755071954,0.8426364575940809,-0.18547831657586256,0.31920443345718896,-0.6517105810289963,2,0.25,0
11.357,2.1608054172119284,2.3811294002259005,3.523861244311516,6.268165242472437,14.888496162758944,5.566818567918097,3.8917769072366695,2.106644109004333,-0.18651192958946883,-0.5142626704915992,-0.3072332498410197,-0.9568114104488206,0.5557120449616584,-0.33461371102869863,1.8451727547677959,-0.1904994339294493,1,0.125,0
11.457,2.814567508608485,2.8658020426557202,3.5729363203013866,6.765768141570403,13.421700260824935,7.162049341443331,3.809426155267948,2.658427533269072,0.5961372480522411,-0.039102224282281585,-0.304682779699993,-0.8188997164885963,0.23904037890385635,0.3846124725884722,1.7222253686377638,0.6666993115055609,0,0.0,0
11.556999999999999,3.3088890918377736,3.940617968002168,6.8673508539422405,14.579835221518206,16.37565173474166,8.384985489196904,3.088306518675352,2.819036074971542,1.0912349780311705,0.631748140080447,1.9380078442951532,2.2996842396934554,0.8197335937071069,0.8715476377030976,0.6959404578342835,0.8729933404006781,2,0.25,0
11.657,3.235680258393813,4.991745697969361,8.082242600576052,16.356333948166004,16.341995411103156,7.527764873794902,3.3722169161558164,2.6991875847353026,0.9849430665635832,1.530699304102325,3.362222339722907,3.5027401164359673,0.7572708265484192,0.4444174262236891,1.1894914235147742,0.6820667368099113,2,0.25,0
11.757000000000001,2.6094683842973607,5.85793962879649,6.967909797710509,11.502077248229256,10.911396426892527,5.192979536432947,2.754984743308226,2.1067873983289775,0.3638415211145106,2.148676754208974,2.5177464496230675,1.3859313972548997,-0.36520349122941126,-0.43213284688873826,0.038269287413591466,-0.04583119481726334,3,0.375,0
11.857,2.3695931556312626,5.455085297052192,6.452289006222984,8.27028221173947,11.921646238825591,4.927724650667622,1.7995726147232929,2.2106562580388975,0.14392692771638163,1.7076241425156966,2.08176299930001,-0.038465296703831774,-0.093121367454995,-0.5226780653824629,-1.2814429123501447,0.09905798938106791,2,0.25,0
11.957,3.038894020572962,4.2930371475269,5.975042167084381,8.361829476051792,14.039677812299567,5.129043159935474,2.7411453086690902,3.1349512489742763,0.7272016978742976,0.9287683848608888,1.7115606671621166,-0.020321982902546533,0.42617576292330284,-0.4612064188611452,0.007478398792160395,1.1986305811619888,0,0.0,0
12.056999999999999,2.9604317486804437,4.071094087580646,7.785808609257092,10.381024389056224,15.299147125620323,5.650302744889342,2.617437355150089,2.8662599458691953,0.4566125585662787,0.815027850704386,3.073320869113683,0.9644326354031844,0.6647869802057589,-0.27162314265185966,-0.4610420248567192,0.5836406802589077,2,0.25,0
12.157,1.9809757565963955,4.853612533477705,8.630009375564702,9.201675464277086,12.31196537470389,5.472296314431732,1.1357987167250736,1.3825482023846822,-0.5090096880080843,1.2752951409862552,3.9028800428691484,0.3398436452357449,-0.2007494572054201,-0.3535752751624369,-2.5754986431912985,-1.110282625091611,1,0.125,0
12.257000000000001,2.0039015791158574,5.725480185255859,7.084796387544756,7.9353939970380925,8.897272861579989,6.969693194039459,1.7453800772711758,1.1325437318482976,-0.3458433605701235,2.0056129146633186,2.6084012940476815,-0.1459014477926846,-0.7855434859919378,0.15338171715569363,-1.6671331054958778,-1.2061760493984044,2,0.25,0
12.357,2.261196183913742,5.178168171809793,5.947988667883063,8.634502020373628,10.162923051532339,7.245653153172502,2.1660017355678614,1.4104019240774028,-0.001425115740634289,1.6469508287965398,1.7175961498364924,0.20809385180114898,-0.46367976728453775,0.33995013450223,-0.726589450287624,-0.8220959093237241,1,0.125,0
12.457,1.9759576884383987,3.6558405767417796,4.846057721065922,7.598658547555484,13.124300116360835,5.341400478589655,1.474892208446156,1.3231747080681622,-0.3284227610168605,0.3605997821058585,0.7019000298356933,-0.29721351393269835,0.13974429934644345,-0.3355104482101957,-2.051382826316695,-0.9434579980036281,0,0.0,0
12.556999999999999,2.518764168201378,2.6684630101409232,3.787069066614806,7.097840942510217,12.736248925933056,4.323637651653795,0.7914963005880956,1.5531422508175587,0.07134682490036193,-0.25208004763210773,-0.0677242097765563,-0.5436279202137537,0.005744072414557255,-0.8310515421692749,-2.8448883474976445,-0.7185821587854461,0,0.0,0
12.657,3.7788123623301018,3.1591828468516803,4.11752291044252,12.344440829943073,10.801411291246442,2.62997517131378,1.1741291719929745,2.0764206740667275,1.4806696725406048,0.15455339013588448,0.208203385199594,1.5445059089015154,-0.37575722920840315,-1.5000856459888134,-2.2717179672932417,-0.04373702636570148,1,0.125,0
12.757000000000001,3.259471048905436,2.584942394242203,4.541000255415028,13.513338074181885,12.174807979204585,3.169427460203814,1.7180128288921699,1.800140334725321,0.7054737008480665,-0.3556479538521422,0.5490544750686168,2.299665892328583,-0.009152457060291604,-1.2894653519875778,-1.4233887265905332,-0.4759617113260285,1,0.125,0
12.857,1.3776623364982186,1.3142281867326406,4.785082240230823,12.535166489452546,15.405567173144556,5.565486610062296,1.796990943482027,1.290415064803679,-1.0597316243763362,-1.285377594342785,0.7546905681244824,1.8801170937515512,0.6588166394869136,-0.3331775345519707,-1.2646042774615018,-1.0238370144297755,1,0.125,0
12.957,1.414418437759877,1.9234438270250453,4.6237765644467546,12.622732621048199,14.144089070865709,6.412721446165674,1.8542585513403993,2.048463733714641,-0.9516579809166806,-0.9510631600653625,0.6244841587540594,1.9291320422631337,0.12731507800616154,0.051071834504682875,-1.1959581234407857,-0.18110536576700292,1,0.125,0
13.056999999999999,1.437852215086743,2.2904568864353942,4.338026177077987,11.331742610058868,6.557759913246413,5.092263800478677,1.7464305721400455,2.0256886696767453,-0.9191816883750693,-0.5149788810879362,0.36412942706760243,1.4023090756022736,-1.4685580333592265,-0.5006898642947988,-1.4148636767098863,-0.2016882666579894,1,0.125,0
13.157,1.4938884526439353,2.973917315975663,4.546445276137697,9.597712435328724,7.502612440782857,4.993478057659858,2.6311789180947556,1.9860407456244833,-0.9115220217129479,-0.131312847558856,0.38408724905651487,0.48314088738249666,-1.199102820418185,-0.5215854207288383,-0.4086371062252255,-0.2548959207436082,0,0.0,0
13.257000000000001,2.4872651778575294,4.569659704168437,7.847578055637599,9.844202773185662,12.431831668156233,6.488791833017905,3.830664521203792,2.7430110841509943,0.1507911248906669,1.0953584349542014,2.7685063747207623,0.5697114124530098,-0.004833014772564957,0.09961263285026843,1.8113897456501113,0.7522236652044373,1,0.125,0
13.357,2.380108736297935,3.8644203226300564,7.569167119635265,9.487324319330995,13.179455726848223,5.750973441206078,3.4549890247717063,2.3025316624908174,0.03759987426045327,0.2892209777279712,2.432862329159425,0.3376027382802299,0.19836874016877912,-0.2708032326086069,1.191052704146657,0.04955892973923076,1,0.125,0
13.457,1.8996863192278999,2.1929827006705516,3.6843466381660495,10.935626205049118,14.780149258209278,5.8795053586116195,2.6509452242693543,1.2786878646943272,-0.3605211477658262,-0.628076162572775,-0.22985330269433968,0.8101518510880392,0.5157453679443722,-0.22501669048708592,0.06235268617680584,-0.9880861524764974,1,0.125,0
13.556999999999999,2.1015341214812104,2.5973755676807686,3.0153204863123633,14.771299348109705,16.598905850678143,6.516645011657419,2.307662887020055,1.5330415749949147,-0.1288687758362716,-0.2605522703472779,-0.7501550865671767,2.8707850819478367,0.960921369271732,0.10048215822092321,-0.5477728074427715,-0.7069470409157771,1,0.125,0
13.657,1.8518183898785054,2.101141525244118,2.0554080581363485,11.26569915650421,12.07260200687542,4.714228827844618,2.038362494688214,1.6996892568644895,-0.40167888237734306,-0.64723283671002,-1.5585633057727715,0.6423954113909086,-0.2640116306148429,-0.6649173200804899,-0.8828066710615383,-0.4798020194019624,1,0.125,0
13.757000000000001,1.8403097805820023,1.93147074669761,4.818965601648487,7.872071318648143,10.891205075056405,6.359064644421422,2.058488356920731,1.4466395690834841,-0.41539031987110714,-0.7345168525289674,0.029854832552834366,-0.5809239203208588,-0.44973925167793516,-0.15108232137682157,-0.8411165934082477,-0.8003948479780691,0,0.0,0
13.857,2.055221042645723,2.6497141155794597,9.815168843980171,17.202925318837877,19.212185696163303,9.73461743536045,1.9384335902701013,1.3687760550488381,-0.18646602500470255,-0.22328913294508887,4.42756432610626,3.4770064167193246,1.4088403261801605,1.358934148814854,-1.023637168587554,-0.8954957003977363,4,0.5,1
13.957,2.0403693020444336,3.2429581215092473,9.948821918972513,18.310900376173223,21.581952791192887,9.788405255333577,1.9207434791459828,1.6391457608932511,-0.1994338559277318,0.23681012104509475,4.647866800113789,4.267862025283225,1.9876842102755148,1.344447975654784,-1.0513831175719948,-0.5675349124334053,4,0.5,1
14.056999999999999,2.2294653396448707,3.811466402947803,8.16810862499824,15.260930942811317,18.426928218818784,7.325578836468614,2.0053176616240336,1.836941030513145,-0.012763142257959853,0.65522435297301,3.2506878456729913,2.922133988217688,1.2343598227012058,0.34288593142125584,-0.931932061750279,-0.3138096227055834,3,0.375,0
14.157,2.6814089895288373,4.625730142857282,10.43285277556903,18.81853339958228,20.145531538615085,6.096221187382138,2.669444270762043,1.84537860934078,0.4502690533989072,1.2583495280373183,5.142136342576274,4.501184359278517,1.5809377436159981,-0.09689462151147629,0.06130570158259189,-0.30058503803604886,3,0.375,0
14.257000000000001,3.702811507011651,5.167353180782704,9.191697318444659,15.177839838428266,16.6368063827691,6.796190242396738,3.404047609218856,2.6422124557509976,1.428733565484163,1.6653534840199753,3.963912151460749,2.145596141759395,0.37581662497010093,0.0799253008941935,1.2548782336839792,0.5335281007053123,2,0.25,0
14.357,3.8164078038785134,4.360295703662565,6.714652005556448,12.506746877463508,14.214637868371426,9.990408251297241,4.1053213492088245,3.241019025127214,1.5658219556817259,0.9600033193154331,2.2282828426970633,1.2826823461731496,0.007645150794822153,1.308974326311113,2.3450655940035072,1.3953657299935,4,0.5,1
14.457,3.152457995291278,3.953521448885888,8.002117222656343,15.189276206326964,17.833624168141807,9.771267168919218,4.552783416834252,3.313876589754243,0.9416176761653627,0.71361375541273,3.255871683889218,2.9245234091725885,1.1264121244111307,1.2268072567742743,3.0771320314355974,1.4879381154197864,4,0.5,1
14.556999999999999,3.4988623669585186,3.973839475036868,6.70638934929261,11.252285227653001,12.935761263684155,5.5080297532735525,4.898527559929828,3.4318818191876153,1.271650813196987,0.7261595090862779,1.9583634051229584,1.0614768697808887,-0.07606930052642369,-0.41705370068667974,3.602424364125718,1.6309944719801248,3,0.375,0
14.657,3.2987781053071834,2.540884976107586,3.8175358149110648,11.153817927636625,10.372787578858972,4.085573002276954,4.3949754057730654,2.9063525101391883,0.9707263086595281,-0.39790145271490684,-0.06402329138355736,1.1701178360575901,-0.4753810302893197,-0.8415482291953144,2.666366358850792,0.8895081571026638,2,0.25,0
14.757000000000001,2.238664569510803,1.2900850762355172,4.739724640330652,13.40828569914116,11.550080184224802,4.0108335047531645,3.279234986482361,2.3497525471771357,-0.10907064377605549,-1.245718579440447,0.6114400647186868,2.3992943819283603,-0.16714172749679346,-0.8839690881002527,0.9289596958610679,0.16318300135634328,1,0.125,0
14.857,2.326813543445414,1.7586306546849495,5.072249095785672,11.34883006858968,13.480587431317863,7.143186861186458,5.2285862624299995,3.8413607337243514,0.02469788925329546,-0.9788914411485214,0.9574303635101113,1.2916084741205685,0.23269841243080594,0.10930243933666225,3.5004980742556002,1.7347539766036326,3,0.375,0
14.957,2.375373362434475,2.4182646084082484,4.85899849755605,7.2192575999871655,13.00480896187599,8.81853863845058,5.441484469580843,3.7031193451031794,0.09376437047051556,-0.3749839361118464,0.8033479002538246,-0.6295596740392818,0.11382214761826932,1.0040100404969898,4.061083661443495,1.5521929924219908,2,0.25,0
15.056999999999999,1.9168276646718794,2.7641230525636056,7.822836827398942,10.87869347578453,12.38878541757841,8.671361656412383,3.8099050034522954,2.425026129579141,-0.33183712957126743,-0.11540993044353401,2.947760565854926,0.6695402443560695,-0.011367346076207523,0.9602439225840202,1.823038611050767,0.3300879836417382,2,0.25,0
15.157,2.279862814880815,2.74927481128082,7.993725200975134,11.955688219310007,13.910288911657863,8.88637643296295,3.974364761378418,2.9302708084929305,0.00829817383882651,-0.1447163871535154,3.0127543374885577,1.3933452128258945,0.3836035668553829,1.0662984578418615,2.1591812042645113,1.0080976337814573,3,0.375,0
15.257000000000001,3.1430986067683575,4.027517606956508,5.692268427284147,7.964113209436853,10.465118449752756,6.9486113364819095,3.7283369783455154,2.7676753377900063,0.863941505061914,0.638087696828048,1.362657395120582,-0.2349346366754071,-0.5513896103762157,0.15234913276706724,1.7030308997670365,0.8103060864368246,0,0.0,0
15.357,2.970766393956409,4.127891182963049,4.321118704294926,7.032959940183248,5.818404828257489,4.096198866905673,2.6495609976549837,2.366193659065717,0.6390774479258352,0.7465766557946385,0.10100764755089853,-0.5295546350198322,-1.5369588463023465,-0.9025832606285423,-0.21561217187033913,0.3392922711875753,0,0.0,0
15.457,1.975018011409168,2.5996080386809584,2.6269660640821377,6.689873791475857,10.003419927021717,5.872458020784096,2.827868350391523,2.052841353212284,-0.2807850063021954,-0.25641167502613843,-1.044729343216377,-0.690436813303822,-0.7629251267451012,-0.30910117212152693,0.06018696796047982,-0.05805805743584702,0,0.0,0
15.556999999999999,2.2813950000177026,2.9498390366830405,3.2671675838802465,9.047653977395996,14.075742961935918,7.091511312694542,3.6430354642349645,2.5355497012766857,0.011630041821551206,-0.03013574589891078,-0.5789324518260188,0.23273129560034142,0.41160227744569333,0.3325206788212051,1.6342792538519482,0.4174639946073235,0,0.0,0
15.657,2.1780544920068494,3.3783676224303236,4.25011388024288,8.721662018893094,12.646716921443762,6.3880978966573245,3.39557804678207,2.616535006514188,-0.1639807463376856,0.27644317813463903,0.19046974285398788,-0.14212690067951955,0.039642716210524155,0.07599245173597628,1.1779347225160082,0.5014121118438933,0,0.0,0
15.757000000000001,1.8108436821133096,2.560444888794211,4.606593098286031,6.2183517863328435,10.995056185444492,5.979634221725725,3.2112148773585085,1.977179333506464,-0.5213863922417226,-0.4470622149310161,0.5198832603533751,-1.205492172523895,-0.355822812613544,-0.09937628937774068,0.7839347172647326,-0.23560979556178996,0,0.0,0
15.857,2.0826401692107592,1.6920299370921157,4.578664238715158,6.94474200285274,12.57166899419916,6.394335895788394,4.249746730966423,2.3213309963118784,-0.23488959390034497,-0.9191942126054968,0.5183666311408122,-0.7821957651316792,-0.013624722657686378,0.054280821410960786,2.266604135130382,0.16328609072126396,1,0.125,0
15.957,1.80541162859036,2.142364321226466,4.26413832229387,6.725775584653297,12.354371455082099,6.390451343103822,3.949718092555922,2.230231570139588,-0.5183163903921654,-0.5709079319309275,0.29666745812422984,-0.7982643030395119,-0.021456154143518133,0.05965348976996051,1.6945327994081616,0.06850223238684791,1,0.125,0
16.057000000000002,1.246309221143921,2.1041675123521686,4.320963256506208,8.151143639052615,12.154716159565524,7.822572626094046,3.6023668779988416,1.9826088703854619,-1.0362385273128496,-0.6140943849593299,0.34355119328910577,-0.13034838948483346,-0.01633067525816078,0.556839175652956,1.3321996674128187,-0.15334668760234565,0,0.0,0
16.157,3.030347245098374,3.1721677216380906,5.457458981935829,9.15498118377514,11.137712298580242,9.642214984464614,6.800733388830994,3.9231463111611653,0.2818966585758208,0.022333068192538663,1.2589498565780544,0.44296146304925904,-0.26460586961344157,1.365654155213475,5.8686072689882405,1.7860554860966098,3,0.375,0
16.256999999999998,4.82102721100352,4.268585245939723,4.927313349808181,7.789220088517253,9.590927616486503,11.009009712201152,9.430140494032367,5.910676355307986,2.4802196090732407,0.9743396333503036,0.71360225021751,-0.22662130728219002,-0.5807479996694365,1.8578685094919858,10.199076210331151,4.409610468408941,4,0.5,1
16.357,4.06927365420917,3.640087540912072,2.958204857265711,9.751796185806862,11.652301707390817,9.519590322950341,7.579180874037989,5.051597058769051,1.4335861387975815,0.43197871162193324,-0.8016174686791862,0.45651245041634,-0.14566553044855562,1.0883620116125414,6.134367517910386,3.0277209359678765,4,0.5,1
16.457,3.1059811449854307,3.5685521198177432,3.7169208874985524,11.506116308929414,12.625127425706518,8.33287216061516,5.151323961815169,3.344266763061505,0.6883570225868285,0.3954907265833819,-0.28958297915353387,1.4072594614849778,0.0736034913683656,0.7346770317004816,3.4381804268034903,1.4088090113867042,2,0.25,0
16.557000000000002,3.38704329940377,4.147174210982053,4.38736802586205,9.132191774322617,10.209139247298442,8.57084536068537,5.2327732542220975,3.3698606866960743,1.0479283116403975,0.9024248099602357,0.41444990399987375,0.28044523403857946,-0.5130862704541026,0.8636973269056135,3.6394302034957073,1.3720099901802736,1,0.125,0
16.657,2.8728243271282654,3.980172011279193,5.315778159244674,9.688020033036285,10.976509206558815,10.258995643737615,5.607600354342085,2.883374558245624,0.5709253217090624,0.7936560926100658,1.0750871463250402,0.45873906029977396,-0.370375523722524,1.4026387235326503,4.044484185419855,0.8256224094039901,2,0.25,0
16.756999999999998,3.0948847507625783,3.8634035870327748,7.234482955177759,10.97419586269995,12.62128927061469,11.422815891269172,6.253307289446405,2.973950797644363,0.8558471451605175,0.7101804883304061,2.7221982707649723,1.1797519377822823,0.07055577730835175,1.995396497798208,5.498970639400256,1.0352936003972977,4,0.5,1
16.857,2.84503173115097,3.4306063065451684,7.137478360831294,11.058700861052682,12.209463527151566,8.449638134076224,5.250090339533232,2.77703781030829,0.5870027324205683,0.36847341510504805,2.58348768584514,1.2785874810510476,0.0020281216386788268,0.8305765422436086,4.144581618375217,0.8187342425357043,3,0.375,0
16.957,1.9606631925097169,2.5826765053314813,5.018616730829862,10.837908368391979,11.212089811998625,6.205169938400853,5.362313148241003,2.326994050548856,-0.39403604408792575,-0.30996498792364113,0.7454617021082247,1.181888493024506,-0.24743366276416418,-0.02210935503217174,4.33910733851136,0.23839561927612132,2,0.25,0
17.057000000000002,2.7780464552918396,2.8671888213316694,3.741228275324128,9.913461419800122,8.868481583831354,5.970536048199421,5.586297244913183,2.7891110794389142,0.23030160049428838,-0.1315464833920887,-0.11049985034498051,0.7695982335976947,-0.7926936657217748,-0.16158104071983856,4.692066928536432,0.7128800879792448,2,0.25,0
17.157,3.3237014947671875,3.3812712791342387,4.233458114677234,11.288648366595895,13.410581853303746,7.7721537548070545,5.337793361514714,3.315445650830037,1.0335280575224592,0.3422748885062268,0.29165919572205057,1.3819280361259803,0.07851010034778344,0.5471382049729271,4.261010058899034,1.4644568169526269,2,0.25,0
17.256999999999998,2.302094538385906,2.5397193278901855,5.0703836495100525,12.099265264326945,17.73627043570521,8.476769852997798,4.530720568146964,2.5454873149834616,-0.061526516032126735,-0.3719692712550346,0.9752216698918785,1.788296346724442,1.2685330583070453,0.9135141543845086,2.988647914101241,0.3856336597485066,2,0.25,0
17.357,2.509330142116983,1.8403129172856132,5.972349471293179,11.523271236418232,19.789757580204018,10.035751623554946,6.6318881486185575,3.2861230387284412,0.09930200590821157,-0.8340847713990961,1.6858695902430523,1.4848401119160464,1.697715307967395,1.4594531927524097,5.719419142777319,1.0240684520345174,4,0.5,1
17.457,3.086394534054378,2.6828812186950133,6.816230985254181,11.577007062524356,19.69146202173241,9.664430705438656,6.956217430220839,4.076815945805542,0.8344912646041527,-0.24489533956497406,2.3605152461229153,1.4927869919335899,1.620902122994717,1.153234885247066,6.172880812783263,2.313028559303591,6,0.75,1
17.557000000000002,2.6910981436458004,3.0900046735674542,6.003891757684212,12.235413134541972,18.563501829263053,7.707969418486206,4.284027110661307,2.9901094216381883,0.3613627610954905,0.08618256918993414,1.6126832895771206,1.8223457355270756,1.3953287865537354,0.43881369026669337,1.9034306466120055,0.8244283768168394,3,0.375,0
17.657,6.948677523841608,6.64245699809347,6.039551780737001,10.004080790201929,15.628545661321894,13.034508051549592,8.925482156412828,6.339734700421841,3.6457285039975247,2.1511432949153466,1.5855961821520512,0.6376552394704669,0.66604369628945,2.3920322508005953,7.606364434011534,3.7138404001706755,6,0.75,1
17.756999999999998,8.259923953494276,8.093051248285176,11.186757361990901,14.838872598908827,16.316576504022873,14.217931438527243,10.303038146554162,7.720225672705245,5.928185789321237,3.756426458337694,5.453166988153852,2.0899012357065536,0.7531591240948019,3.0757962010361135,11.495633092445505,6.531607584590573,7,0.875,1
17.857,5.611784785981717,6.406749405475338,12.76028833577487,21.479314540564236,20.468734425735168,10.777287530350083,6.543824539015204,5.366382703241765,3.1707796910855284,2.510648404627702,6.8293282031060425,5.612635281996828,1.794885940923957,1.7907685727504312,5.584514077273157,3.6292715491473215,8,1.0,1
17.957,3.4625802120808706,4.588693920545177,8.45091500411082,17.26603350259364,16.803631322823314,8.667309807818823,3.715278390187219,3.299390513546449,1.0610886027108244,1.1068410575513092,2.6900574394204404,3.1484972483880465,0.8614776656818325,0.9248545138523945,1.2358245420110419,1.268007880233777,2,0.25,0
18.057000000000002,3.403439981907148,3.850594452332425,3.6762810531474677,6.610772382980736,14.129742526834422,8.833826486141513,3.772060475376583,3.153735566655948,1.1068514344878093,0.670391892207037,-0.15100384188464355,-0.8959766535042926,0.38811748367228033,0.9819780861632555,1.4719518850425053,1.2139965817423914,0,0.0,0
18.157,3.5546636156337006,4.238607887746926,5.068352451411437,10.000357928557174,19.84874347037809,12.037940371129535,4.158363716620335,3.1822950202993097,1.2989055333514405,0.9823707493961982,0.8138627813640158,0.2325284955206056,1.654758268198447,2.2545751747581884,2.3512873303108606,1.2726913186295545,4,0.5,1
18.256999999999998,3.0705758607792046,4.902239852182998,7.277393852994806,15.473221196226369,18.108039481575332,10.424826611716089,3.628849981331359,2.875608351827231,0.7551768646033037,1.3828110910734164,2.686625206527684,3.1452955833694785,1.1189178835570535,1.3577687700103582,1.6145929357266269,0.8929188456679732,3,0.375,0
18.357,4.262322064685065,6.334510517052239,9.202897978136335,16.25513778804179,15.8126548221769,7.098186218153279,4.335535525913926,4.189577497806477,1.8316929776503983,2.3718451691161584,4.248328765384466,3.656195669086351,0.7229724257803831,0.3101326130126349,2.656137146482389,2.3228383651758735,6,0.75,1
18.457,4.537904032803705,5.781038114333654,8.155204199105961,12.637403622082426,17.99730392664843,7.890192901083212,3.9335710743240995,4.049432778769504,2.2443769641718303,1.8858321910450555,3.2019132750090966,1.8738003588837877,1.3140689738682707,0.659039000366705,1.8850018747795745,2.1139920932727376,6,0.75,1
18.557000000000002,4.093209862063504,4.665867174111704,5.005131428536461,8.27757087149227,13.54152796357777,6.01244943646763,2.469786921808859,2.99481039682463,1.8466808068194496,1.2370280852356585,0.8543022627210364,-0.05965842105525983,0.13795222717020794,-0.2145429134354943,-0.32930524810641737,1.0285822437132501,1,0.125,0
18.657,3.393735151700238,4.421364306497633,3.5528310786231425,6.458111357068481,8.815449861195791,4.595468769345369,2.325555548446536,2.4889624820113476,0.9491733035621094,1.0383715950324577,-0.44498180267012966,-0.8892349053236263,-0.8102379512883484,-0.6670984041746473,-0.5548811661030886,0.21011380276376396,0,0.0,0
18.756999999999998,1.653368180184662,2.8595270726697795,2.304429607323477,7.839360163408265,9.332896848187897,4.2501119513218795,2.267522647128636,1.0211638264683327,-0.7335790087058206,-0.1379619311856867,-1.3148295018915026,-0.27734835706644495,-0.6541739846659549,-0.8574237941214488,-0.6615824209794552,-1.4262297049114572,0,0.0,0
18.857,1.1892910995955632,2.1173802440675416,1.754701770961958,8.106393648511746,8.09839860602257,3.5314446160707664,2.7287166601179442,1.1466717314942165,-1.0917109723704659,-0.5919390411560905,-1.8246844276931147,-0.08186981127959073,-1.0102985795233248,-1.1253575442148782,-0.15342942956607067,-1.4079017471170485,0,0.0,0
18.957,1.8538055955628134,2.024377869242386,2.2241301740735024,6.006492937190515,6.860385066969591,5.473881893564317,3.974705887646016,2.1755170106651383,-0.45233282539029906,-0.6685019757664047,-1.579716089415793,-1.0341161604434976,-1.2717227729136926,-0.38379005209282074,1.9922008155825381,-0.09533126838606154,1,0.125,0
19.057000000000002,2.0246423327280425,1.5003256748713223,4.262426803795485,8.154705203270495,9.1676571997581,6.403516412006186,3.8096396122451197,2.08091538478896,-0.2865912713308509,-1.0645102380298117,0.10580889616868616,-0.22784940802423392,-0.7498260231041783,0.031162329981904803,1.7059674413534065,-0.22648486853474276,0,0.0,0
19.157,1.455870312045618,1.2563080381778167,4.166302834646986,8.379357712360848,8.1101938973663,4.741487647691021,2.19029326837647,0.9697017096070775,-0.9099399968320876,-1.2254666318417402,0.04717803089162435,-0.1961501919398126,-1.0437456668114473,-0.7753207429710434,-1.2083312821886065,-1.4845522388347558,0,0.0,0
19.256999999999998,1.3766982896672757,1.0043606296893188,3.17317891062363,7.098291685878791,14.72971160943869,5.748515159044185,1.671349490705114,0.9777304169329493,-0.9189136428115294,-1.4708118818822147,-0.6418618598739656,-0.8225436477004109,0.023531654546979187,-0.4962854514279263,-1.8167734786467218,-1.4250074415390943,0,0.0,0
19.357,1.6363484312809593,1.175222574319222,4.315077529523916,10.203197137199378,22.813963906523576,10.189787292342984,2.5235759697397384,1.4366352845478345,-0.6115902898642909,-1.4125804097750048,0.31060297824464617,0.7006099422837935,2.2917141788183963,1.4333392883921279,-0.2263914024592772,-0.8199060234227892,3,0.375,0
19.457,1.8471149306288226,2.1672926353755773,4.725887106461722,14.261441023707654,25.433170071951253,11.491446347554044,2.511859588006402,1.8487709744265437,-0.40819265993815296,-0.6355165289101413,0.6718178995415136,2.7030546427840894,3.0217552275711883,2.0955210336502157,-0.16737899788907198,-0.3128027946886377,3,0.375,0
19.557000000000002,1.9974818556616245,2.3872966195366647,4.45352573366265,16.464872641657216,25.092039276349524,9.31212593914296,2.0728475203007144,1.7416063429460826,-0.24097058901458132,-0.3934300693368935,0.410867861328929,3.7805236531992428,2.946940668293808,1.1785518268776891,-0.8480472056626576,-0.4649948081490985,2,0.25,0
19.657,1.867551030936438,2.2466422088490225,4.256760355986156,13.881922600425304,22.915366493661473,7.771225608083,2.3302068654748034,1.551319556199323,-0.39013235876698804,-0.48908591173665555,0.2316211187031619,2.4207596785693024,2.432235537117547,0.6379883709655045,-0.45445284965204735,-0.6754217328575155,2,0.25,0
19.756999999999998,1.3260731002925465,1.9337032626444968,3.4758923761270943,10.468195863830822,18.64009595503912,7.558676952420474,2.1225330979358743,1.531982157255783,-1.116720648869306,-0.803281109629998,-0.4405460679431245,1.0204666815561287,1.4244407305153137,0.5428873114779192,-1.0042208975749358,-0.7341931104172503,2,0.25,0
19.857,0.9062252762202713,1.0791670335571093,2.4312781115193824,8.32752655441793,13.514475019639036,6.175037352399737,1.0115868824109298,1.17224032009677,-1.456187018089524,-1.4265994196322396,-1.2063170843582942,-0.15564182473179705,0.25266082977043114,-0.04679134935862239,-2.8752811619457965,-1.153233510441893,0,0.0,0
19.957,1.289300665931242,0.9317748148635316,1.7566405415181539,4.818930333618498,11.289914906284283,6.532561494233592,0.9524883068994799,1.0302000933534143,-0.9989263743776586,-1.5127391274414048,-1.845800833772064,-1.5897048066308685,-0.21746882923166422,0.07005021659962005,-2.8870241735464313,-1.2823611183695502,0,0.0,0
20.057000000000002,1.3723093356714167,1.7303242343101681,2.5939488801581314,6.734343237154601,11.736139159124438,6.908340704844923,1.5389356180337475,1.0003270670777626,-0.8807816569170624,-0.9640635612048574,-1.3408417857200303,-0.8576023724167985,-0.10200222437082587,0.24511264796119842,-1.7472038445140439,-1.3269909381572638,0,0.0,0
20.157,1.2025011671076618,1.850834859277841,4.2769064795958,9.303121987690593,10.066304722597385,4.891973910270197,1.4499842163175327,0.7407773452433662,-1.063394714719237,-0.8099795338039012,0.2504416962689271,0.4756416276608036,-0.528598977931778,-0.5986423055572759,-1.8480004518033777,-1.7158777010418151,0,0.0,0
20.256999999999998,1.1110294371658895,1.5640840165777208,5.211855856092657,11.434074985778844,13.575236267515336,6.011253457193409,1.441062654962074,0.8204694472709917,-1.156151584102024,-1.0150355971158842,1.0686020342375873,1.4386843149848962,0.01777902642392957,-0.31695352167415985,-1.889965505211921,-1.6806764371987402,1,0.125,0
20.357,1.1669293507854293,1.588311678909836,5.403204403418147,11.856292292009433,17.935316950004,8.282191053386585,1.8125547285872112,1.276006843304862,-1.1089568535328442,-1.04724086702716,1.1023479698685175,1.5323963233724087,1.155660561020012,0.7065417173170601,-1.2857373827270266,-1.055195978200893,1,0.125,0
20.457,1.0893313023215476,1.1596687381573876,3.973352236072874,9.127111504972012,14.83382941522965,7.109725011875295,1.6338109507473817,1.2148634485725773,-1.1860121950517701,-1.419453987453309,-0.40288686669285606,0.19755505707522217,0.4115606009706478,0.21610189361331694,-1.5679673503541862,-1.1055763689451852,0,0.0,0
20.557000000000002,1.348218622337344,1.2592618436521879,2.6753149688761555,10.072995147638048,9.83544928118865,5.241851378172578,1.6360429297838424,1.183765657355029,-0.9673659824126661,-1.3288329256409734,-1.217497723890966,0.6295987702163007,-0.5600705661347215,-0.4276895867268527,-1.5732280533422884,-1.1904622489853192,1,0.125,0
20.657,1.9830960348951876,2.0073207292955693,4.847380739209555,12.925023857105728,14.39800627260307,8.308096517104083,2.6880772026040085,1.984119970883087,-0.30820971623671617,-0.702981828738035,0.5428374773105882,2.099811913201549,0.3239044440314462,0.6527253673082603,-0.028406657683284996,-0.28800387771457614,1,0.125,0
20.756999999999998,1.9438260157969471,2.240664813299267,4.706746236497035,9.998251025067914,13.500653336947416,7.722488114878991,2.6814138144787676,1.9157089300172914,-0.33497479503336974,-0.4916416048911909,0.403248535031986,0.2798648162449632,-0.0570665420739067,0.23834721280612287,-0.015114567864328198,-0.3551245260439116,1,0.125,0
20.857,1.395359463930562,2.0448566724096318,2.497073059727237,5.3624872159061665,9.759335619702568,4.788949795101882,2.6969919793712083,1.5808914539945702,-0.8651062956377389,-0.6427090425142659,-1.2668284900584426,-1.4852531858951448,-0.8310549734129914,-0.7275209463534227,-0.026021768940017398,-0.6747248515246058,0,0.0,0
20.957,1.1818126718731436,1.5930301161838678,3.2786740063070154,9.354294598799912,18.802947591944534,7.65517167918526,3.1153976760529485,1.7086196456307299,-1.0961982146855749,-1.004218194256554,-0.6791701759365757,0.21710954893657872,1.1854064045879968,0.44388256392150405,0.6466724578411686,-0.5173857711065222,1,0.125,0
21.057000000000002,1.0748034764937218,1.5305851945041817,4.001462971345876,9.983010796367026,20.057685585242908,7.69634041807159,2.1559048425625833,1.2472411333836793,-1.2067807091981932,-1.044630992846464,0.04957930962148223,0.6118000705444282,1.6306033406448712,0.515757997732527,-1.1858831947344206,-1.0956895059218539,2,0.25,0
21.157,0.9306391532514995,1.4469702190473877,2.9328240919256383,5.655698443199811,11.863574738588364,5.41833521057632,0.8541781148332993,0.8119633293589332,-1.3445290888389778,-1.1584540055090877,-0.9739749422041681,-1.6116021632008362,-0.3898779220912171,-0.33579814361946536,-2.7263888401036764,-1.5765764257048005,0,0.0,0
21.256999999999998,1.2545637635803655,1.000389689673795,2.550007459357114,7.5817680246405175,9.779587161842645,5.120473524627506,1.140661093664212,0.7652396874528165,-1.0873846452271843,-1.4695836174768524,-1.2606048468832733,-1.1600494595972324,-0.7685109098166366,-0.4406876544906625,-2.418522079285642,-1.6559793704776893,0,0.0,0
21.357,1.9937734210778955,1.427043578493852,4.617780792699437,16.93715861812391,20.873218299001316,9.80899040533688,2.5380791406328442,1.4923899825817597,-0.30826503594951005,-1.1624004821606113,0.3804957029396319,3.2631516226742434,1.6034487665400303,1.1036632706525933,-0.4370864436656633,-0.8743634573585602,3,0.375,0
21.457,1.8234687137604955,1.4666351071932968,4.347266510628676,16.70290554580956,23.572415030978366,12.527564162800935,2.921286034007101,1.8915150829469327,-0.5560341359543426,-1.0952909853012704,0.030022425397950015,3.2565577469459477,2.448691974191969,2.3847470279664,0.41428628103965853,-0.2614742829476765,3,0.375,0
21.557000000000002,1.0219720169758537,1.0107654424995365,1.9352694455592894,8.598081533396487,19.514253363234403,10.60485482869853,2.002733203090392,1.4116292044859187,-1.275591968827709,-1.4101679922656867,-1.7273561198809015,-0.027880362954060718,1.4604813973585888,1.4794424677144,-1.1208587265401895,-0.985134807568506,2,0.25,0
21.657,1.4769463735453954,1.1902777821467558,2.668657079384832,10.350240988105188,21.322887346016703,10.887170331091909,1.856361368983671,1.0171454017298633,-0.8665152944200554,-1.3004327387137136,-1.2006589696580936,0.7809203281264265,1.8852294715867832,1.6537391629666263,-1.2480734208579072,-1.3435837853965205,3,0.375,0
21.756999999999998,2.4015893744168584,2.0085447517215833,5.602244585018441,11.595080978289303,20.20100773021684,10.91547301907491,1.940675113547767,1.8638958166261865,0.11514947221872249,-0.7191342419864976,1.1430311991082511,1.5350617459090454,1.707744262677443,1.781133358681375,-1.0706421252004907,-0.3823487660954091,3,0.375,0
