Time,Fused_z,Active_binary
47.0,0.43894627985619306,0
57.0,0.5027199553770523,0
67.0,0.5590334753879025,0
77.0,0.6046404828944186,0
87.0,0.6425127139835513,0
97.0,0.669921827242007,0
107.0,0.6863812363534609,0
117.0,0.6945183843652496,0
127.0,0.6974480829086661,0
137.0,0.6980083634542038,0
147.0,0.6982163721571014,0
157.0,0.6991055006820905,0
167.0,0.7009195723029716,0
177.0,0.7034775785546893,0
187.0,0.7064975132992581,0
197.0,0.7097650283268142,0
207.0,0.7131528598694487,0
217.0,0.7159575989338027,0
227.0,0.7179800772689788,0
237.0,0.7191880208534729,0
247.0,0.71977465994899,0
257.0,0.7201393373316605,0
267.0,0.7207345120003157,0
277.0,0.7217765558366268,0
287.0,0.7228985014469888,0
297.0,0.7228898572395648,0
307.0,0.719670610071591,0
317.0,0.7105697614179671,0
327.0,0.6928667266377526,0
337.0,0.6644677093596781,0
347.0,0.6257067639495072,0
357.0,0.5892986096312698,0
367.0,0.5535879044759939,0
377.0,0.5318704659381762,0
387.0,0.5247907691043502,0
397.0,0.523525600592666,0
407.0,0.5214605874579914,0
417.0,0.5168291112291528,0
427.0,0.5084123651121282,0
437.0,0.50994302115279,0
447.0,0.5161760394870512,0
457.0,0.5209943713423008,0
467.0,0.5236400344286811,0
477.0,0.524350579457086,0
487.0,0.524811186938736,0
497.0,0.5281151213655955,0
507.0,0.5377784906380351,0
517.0,0.5561019893420326,0
527.0,0.5829416294976084,0
537.0,0.6155652744087304,0
547.0,0.6494401438701514,0
557.0,0.6795844078403335,0
567.0,0.7020058359982188,0
577.0,0.7147031759915482,0
587.0,0.7179904097658089,0
597.0,0.7141853277430111,0
607.0,0.7119620684795112,0
617.0,0.7099399142303034,0
627.0,0.70875743955466,0
637.0,0.7090765270158413,0
647.0,0.7103402226832743,0
657.0,0.7114692759575783,0
667.0,0.7115786594654592,0
677.0,0.7103992256821874,0
687.0,0.7082834643033674,0
697.0,0.705840467999604,0
707.0,0.7034165840358799,0
717.0,0.7007590886613251,0
727.0,0.6971171599541359,0
737.0,0.6917397267437453,0
747.0,0.6854412259610605,0
757.0,0.6845686177641818,0
767.0,0.6828180842216727,0
777.0,0.6807892918736774,0
787.0,0.6789992853233454,0
797.0,0.676851857118535,0
807.0,0.6722536224158843,0
817.0,0.6621823385818013,0
827.0,0.6463172164147786,0
837.0,0.625429951824273,0
847.0,0.5959335681445753,0
857.0,0.561022832242094,0
867.0,0.5255565693889319,0
877.0,0.4946878975929196,0
887.0,0.4721567263162793,0
897.0,0.4640645830278095,0
907.0,0.46122456002893314,0
917.0,0.4601401460259823,0
927.0,0.45805381579956983,0
937.0,0.4537734909212445,0
947.0,0.4477727712467237,0
957.0,0.4416840394334823,0
967.0,0.4386680312520892,0
977.0,0.4377121365303328,0
987.0,0.43991107834324983,0
997.0,0.4494074513294665,0
1007.0,0.4632265739501388,0
1017.0,0.47753836185326215,0
1027.0,0.49081218767939905,0
1037.0,0.5023594853593087,0
1047.0,0.5115915939622632,0
1057.0,0.517979010454276,0
1067.0,0.529371441375664,0
1077.0,0.5459260940395285,0
1087.0,0.5642458354849121,0
1097.0,0.5856523342728759,0
1107.0,0.6218072506884327,0
1117.0,0.6645707362936503,0
1127.0,0.7101945071976904,0
1137.0,0.7569136011566255,0
1147.0,0.8025005595007466,0
1157.0,0.8445115002272695,1
1167.0,0.8806068480794407,1
1177.0,0.90893087481189,1
1187.0,0.9302709604779024,1
1197.0,0.9423380901602261,1
1207.0,0.9457348697615577,1
1217.0,0.9436197686840289,1
1227.0,0.9393894048092639,1
1237.0,0.9358342690118959,1
1247.0,0.934557426153865,1
1257.0,0.9358642459342008,1
1267.0,0.9390907831905804,1
1277.0,0.9431422708656897,1
1287.0,0.9469850526072721,1
1297.0,0.9499519555614535,1
1307.0,0.9518624130236775,1
1317.0,0.9530193863811485,1
1327.0,0.9541140678546991,1
1337.0,0.9594181086509537,1
1347.0,0.9681419411500964,1
1357.0,0.9788254660259579,1
1367.0,0.9899206590555183,1
1377.0,0.9990302740871781,1
1387.0,1.0034213079562586,1
1397.0,1.0006399247863094,1
1407.0,0.9890430722753525,1
1417.0,0.9681485560472729,1
1427.0,0.9387802532200125,1
1437.0,0.9030213142932508,1
1447.0,0.8639916849838035,1
1457.0,0.8254498839853773,1
1467.0,0.7912037641901071,1
1477.0,0.7643452504999269,1
1487.0,0.7464691484948333,1
1497.0,0.7372504199981981,1
1507.0,0.734698258996592,1
1517.0,0.7359538909679777,1
1527.0,0.7382012186038246,1
1537.0,0.7393745925251577,1
1547.0,0.738534458055575,1
1557.0,0.7363039438700157,1
1567.0,0.7344437799832145,1
1577.0,0.7317086564264825,1
1587.0,0.7333430817038387,1
1597.0,0.7447800779366356,1
1607.0,0.7582458843885732,1
1617.0,0.7714543305184562,1
1627.0,0.7818960331620981,1
1637.0,0.7872659159385782,1
1647.0,0.7859798220964069,1
1657.0,0.7777277471973523,1
1667.0,0.7639262657762784,1
1677.0,0.7480021593588573,1
1687.0,0.739792501204007,1
1697.0,0.7387154643799348,1
1707.0,0.7481370811373657,1
1717.0,0.7690373209090327,1
1727.0,0.7996348774160817,1
1737.0,0.8411123407899698,1
1747.0,0.8841969330139845,1
1757.0,0.9230334948233396,1
1767.0,0.9557958533778332,1
1777.0,0.9819242730355113,1
1787.0,1.0017870693749171,1
1797.0,1.0178747213996358,1
1807.0,1.030175333337594,1
1817.0,1.0412444505218714,1
1827.0,1.0503949845209544,1
1837.0,1.0561513843891928,1
1847.0,1.059028810682214,1
1857.0,1.057108384398636,1
1867.0,1.0528827858058971,1
1877.0,1.0475954907918816,1
1887.0,1.041549194268485,1
1897.0,1.0358556564948793,1
1907.0,1.0316930784981717,1
1917.0,1.0300305414176658,1
1927.0,1.031269403698683,1
1937.0,1.0350693938774245,1
1947.0,1.0475964457099836,1
1957.0,1.0610521889894378,1
1967.0,1.0734597955835903,1
1977.0,1.0829036094097728,1
1987.0,1.0874764719846493,1
1997.0,1.085417995695399,1
2007.0,1.0754255597962492,1
2017.0,1.0570205959070937,1
2027.0,1.0307649596176671,1
2037.0,0.9981870093956826,1
2047.0,0.9614240448071593,1
2057.0,0.9227237462518906,1
2067.0,0.8840106955355831,1
2077.0,0.8466867454709013,1
2087.0,0.8119004518283486,1
2097.0,0.782857193528887,1
2107.0,0.7568907942811514,1
2117.0,0.741383357024726,1
2127.0,0.7318351550602946,1
2137.0,0.7268150716018535,1
2147.0,0.7253648728689981,1
2157.0,0.7257818319410674,1
2167.0,0.7259216543107654,1
2177.0,0.7237001366505058,1
2187.0,0.7175403653225219,1
2197.0,0.7187656534553728,1
2207.0,0.715910231512441,1
2217.0,0.7066026337118863,1
2227.0,0.6925397065081466,1
2237.0,0.6784823459389855,1
2247.0,0.6584426571148785,1
2257.0,0.6342738173596558,1
2267.0,0.6092707910557957,1
2277.0,0.5958055162260238,1
2287.0,0.5956635791988374,1
2297.0,0.6046075461641485,1
2307.0,0.6201176964979789,1
2317.0,0.638358562663587,1
2327.0,0.655228104991053,1
2337.0,0.6674543790973637,1
2347.0,0.6733147049427017,1
2357.0,0.6728318812584154,1
2367.0,0.6675574431839459,1
2377.0,0.6600587694350347,1
2387.0,0.6572185729236751,1
2397.0,0.6593234166575453,1
2407.0,0.6657575563709249,1
2417.0,0.6756490243191048,1
2427.0,0.6867161878872282,1
2437.0,0.6961086660179796,1
2447.0,0.7013268439099027,1
2457.0,0.7008671765400918,1
2467.0,0.6944609800619508,1
2477.0,0.6829621354916848,1
2487.0,0.668043486655177,1
2497.0,0.6518776465488532,1
2507.0,0.6401304414876132,1
2517.0,0.639931991904644,1
2527.0,0.6435087255901615,1
2537.0,0.6515284505590904,1
2547.0,0.6636793330596003,1
2557.0,0.6783760697776884,1
2567.0,0.693023957080173,1
2577.0,0.7047333232017915,1
2587.0,0.7111173701223874,1
2597.0,0.7108716268058136,1
2607.0,0.7040268781029106,1
2617.0,0.6919120162164378,1
2627.0,0.6923512813910603,1
2637.0,0.6912681844961942,1
2647.0,0.6885214111756025,1
2657.0,0.686155402303643,1
2667.0,0.6863193602537376,1
2677.0,0.6910113866401529,1
2687.0,0.7018729301688551,1
2697.0,0.7201273477745869,1
2707.0,0.7466012638342883,1
2717.0,0.7816481806960888,1
2727.0,0.8248852445296049,1
2737.0,0.8748502672010053,1
2747.0,0.9287918010128768,1
2757.0,0.9827710091399036,1
2767.0,1.0321455637709307,1
2777.0,1.0723850181282488,1
2787.0,1.1000717333547803,1
2797.0,1.1138878282709976,1
2807.0,1.1153525032593814,1
2817.0,1.1090182709512824,1
2827.0,1.101785870829843,1
2837.0,1.101124667046924,1
2847.0,1.1125368367357282,1
2857.0,1.1374389179323585,1
2867.0,1.1728111716051086,1
2877.0,1.2128287138423153,1
2887.0,1.2513242085229026,1
2897.0,1.2837494967592598,1
2907.0,1.3080438518523705,1
2917.0,1.3244902127624445,1
2927.0,1.334915959427232,1
2937.0,1.3416389846525631,1
2947.0,1.3465233843272966,1
2957.0,1.3504112361273153,1
2967.0,1.3530257125031449,1
2977.0,1.3532468397573658,1
2987.0,1.3495468516629212,1
2997.0,1.3403929728327029,1
3007.0,1.3245361778737306,1
3017.0,1.3012128649112633,1
3027.0,1.2703322201935092,1
3037.0,1.232698174074135,1
3047.0,1.1902434376730489,1
3057.0,1.1461602264550304,1
3067.0,1.1047247373832394,1
3077.0,1.0705864640994336,1
3087.0,1.047447471438208,1
3097.0,1.0364820072893428,1
3107.0,1.035314355489013,1
3117.0,1.0382999489257383,1
3127.0,1.038078812401734,1
3137.0,1.0276287144484537,1
3147.0,1.0061673064355032,1
3157.0,0.9694441264193555,1
3167.0,0.9183927683740831,1
3177.0,0.8573123498090072,1
3187.0,0.7921800341917862,1
3197.0,0.7292772675322816,1
3207.0,0.6745272376849067,1
3217.0,0.6252153267958593,1
3227.0,0.5886774646703951,1
3237.0,0.5673970949560282,1
3247.0,0.5585083420328474,1
3257.0,0.5625622912088577,1
3267.0,0.5815376347330614,1
3277.0,0.6006500396339101,1
3287.0,0.6153460862424632,1
3297.0,0.6238157905897191,1
3307.0,0.6267273886972918,1
3317.0,0.626362469096274,1
3327.0,0.6253444984193712,1
3337.0,0.6253793953460057,1
3347.0,0.6265944366183269,1
3357.0,0.6278710369097669,1
3367.0,0.62798350367785,1
3377.0,0.6268528216364502,1
3387.0,0.6262063030367396,1
3397.0,0.6292374280507104,1
3407.0,0.6511986298860593,1
3417.0,0.6948000337173911,1
3427.0,0.7446315106897523,1
3437.0,0.7938130615199814,1
3447.0,0.8357107393450118,1
3457.0,0.8656830099447441,1
3467.0,0.8823118055689807,1
3477.0,0.8878966286793335,1
3487.0,0.88802275124701,1
3497.0,0.889969519827194,1
3507.0,0.8999875886655341,1
3517.0,0.9204742304002773,1
3527.0,0.9489638843153052,1
3537.0,0.9797645543091733,1
3547.0,1.0068267366933896,1
3557.0,1.0259641986455943,1
3567.0,1.0357720805366513,1
3577.0,1.03751538978636,1
3587.0,1.0344494023050776,1
3597.0,1.0309334438887385,1
3607.0,1.0315102728603451,1
3617.0,1.054550846335154,1
3627.0,1.0943285121269222,1
3637.0,1.144098937438801,1
3647.0,1.2133391537198168,1
3657.0,1.2774912287288225,1
3667.0,1.330512079148684,1
3677.0,1.3694011901507586,1
3687.0,1.3946242888267113,1
3697.0,1.4399530332835786,1
3707.0,1.4802322165901143,1
3717.0,1.5083691871409308,1
3727.0,1.5180966035862888,1
3737.0,1.5100704560148774,1
3747.0,1.4934083981999373,1
3757.0,1.4777736211344614,1
3767.0,1.4832726853647218,1
3777.0,1.525792268916746,1
3787.0,1.6053075261840892,1
3797.0,1.7131234429904287,1
3807.0,1.8341777488638122,1
3817.0,1.953240402134472,1
3827.0,2.059118686946343,1
3837.0,2.1463025546762027,1
3847.0,2.2146682103860265,1
3857.0,2.2678983503030654,1
3867.0,2.311267009686304,1
3877.0,2.349531872832545,1
3887.0,2.3856062995823226,1
3897.0,2.420270306620442,1
3907.0,2.452642490786731,1
3917.0,2.480889175317532,1
3927.0,2.5028072482696766,1
3937.0,2.5162240840590604,1
3947.0,2.5193350382036197,1
3957.0,2.511081205824931,1
3967.0,2.491555449334673,1
3977.0,2.462330699936577,1
3987.0,2.4265756478707727,1
3997.0,2.3888340505965457,1
4007.0,2.354367415027043,1
4017.0,2.328027227672667,1
4027.0,2.3128062411939876,1
4037.0,2.308509779681556,1
4047.0,2.311168232056118,1
4057.0,2.313607278401378,1
4067.0,2.307076190718476,1
4077.0,2.2834234511614078,1
4087.0,2.24452327926671,1
4097.0,2.200626766278827,1
4107.0,2.1434160027205396,1
4117.0,2.078960215305364,1
4127.0,2.0155084221371053,1
4137.0,1.9612700636428049,1
4147.0,1.9218015916855917,1
4157.0,1.898025998999735,1
4167.0,1.8943920396097762,1
4177.0,1.897298123110072,1
4187.0,1.890502931985087,1
4197.0,1.8830412695373262,1
4207.0,1.8548441128258002,1
4217.0,1.806056627227354,1
4227.0,1.7415659288498966,1
4237.0,1.6754319697429256,1
4247.0,1.6447497976076362,1
4257.0,1.6232546989293013,1
4267.0,1.6150704536863985,1
4277.0,1.6320614613991147,1
4287.0,1.6615121919500342,1
4297.0,1.6935208918614688,1
4307.0,1.720446930159052,1
4317.0,1.7369593884204588,1
4327.0,1.7410172975942715,1
4337.0,1.7341386457530124,1
4347.0,1.721147877906013,1
4357.0,1.7093069408755537,1
4367.0,1.706562159711384,1
4377.0,1.7189227729754584,1
4387.0,1.7478708096025946,1
4397.0,1.7893532947428645,1
4407.0,1.8350470804197339,1
4417.0,1.8749697113938852,1
4427.0,1.9000927296760524,1
4437.0,1.9042869354032883,1
4447.0,1.88548126328871,1
4457.0,1.846044914569584,1
4467.0,1.7923666950713504,1
4477.0,1.7335922811189253,1
4487.0,1.6795769936497682,1
4497.0,1.638381374118852,1
4507.0,1.61402773183612,1
4517.0,1.6054601243976125,1
4527.0,1.6073004739821966,1
4537.0,1.6120474012063073,1
4547.0,1.6125892378087774,1
4557.0,1.6121760308075184,1
4567.0,1.6015068843686038,1
4577.0,1.5799966385424304,1
4587.0,1.550828723786597,1
4597.0,1.5188531076283618,1
4607.0,1.489477767127934,1
4617.0,1.4670878722536362,1
4627.0,1.4534077704261656,1
4637.0,1.4465827133590201,1
4647.0,1.4521929007818188,1
4657.0,1.453784207587552,1
4667.0,1.4425142877719337,1
4677.0,1.4314238475405365,1
4687.0,1.4027456152424864,1
4697.0,1.3557213938372419,1
4707.0,1.3006990074197708,1
4717.0,1.294005550609555,1
4727.0,1.289699529980997,1
4737.0,1.2799730840361812,1
4747.0,1.2650186504468799,1
4757.0,1.2451576078608446,1
4767.0,1.2207409435738472,1
4777.0,1.192140018211569,1
4787.0,1.1627519627322154,1
4797.0,1.13673477669728,1
4807.0,1.1175542060469537,1
4817.0,1.1036220538136436,1
4827.0,1.0960515186614521,1
4837.0,1.0887218919379593,1
4847.0,1.0885623062372054,1
4857.0,1.0949427758928891,1
4867.0,1.0980421994420426,1
4877.0,1.0992159671699695,1
4887.0,1.1020385075149657,1
4897.0,1.1098256668129718,1
4907.0,1.116792088326838,1
4917.0,1.1220156243137378,1
4927.0,1.124906376717193,1
4937.0,1.1346452612069031,1
4947.0,1.1412448121347625,1
4957.0,1.1425653376844425,1
4967.0,1.1377472435461413,1
4977.0,1.1269329559731112,1
4987.0,1.111378445267538,1
4997.0,1.0931864351271865,1
5007.0,1.0747098472172347,1
5017.0,1.057805834595607,1
5027.0,1.0431735711461159,1
5037.0,1.0299950908492583,1
5047.0,1.0300459224376095,1
5057.0,1.0264666616165576,1
5067.0,1.013065529512926,1
5077.0,0.9886968143212016,1
5087.0,0.9510484937270096,1
5097.0,0.9069323089207153,1
5107.0,0.8572181411783864,1
5117.0,0.8063766330495175,1
5127.0,0.778234788017063,1
5137.0,0.7691387538585774,1
5147.0,0.8018646709831905,1
5157.0,0.852405174221264,1
5167.0,0.9098381918186309,1
5177.0,0.9710965235157955,1
5187.0,1.0121688638293012,1
5197.0,1.0252931829600023,1
5207.0,1.0173289665802496,1
5217.0,1.0067745403642192,1
5227.0,1.0315805973112258,1
5237.0,1.0955961807922145,1
5247.0,1.2036159762084395,1
5257.0,1.3434835381483965,1
5267.0,1.4977390255557552,1
5277.0,1.6515087447527639,1
5287.0,1.7817748683742254,1
5297.0,1.8807631084706478,1
5307.0,1.947741993719212,1
5317.0,1.9871703135479206,1
5327.0,2.006256278302727,1
5337.0,2.012500102540612,1
5347.0,2.0118878947732854,1
5357.0,2.008234394673252,1
5367.0,2.0036484959695553,1
5377.0,1.9994902444210396,1
5387.0,1.996956525742947,1
5397.0,1.9968019824109682,1
5407.0,1.9984563725020394,1
5417.0,1.9994106663641706,1
5427.0,1.9957222669023877,1
5437.0,1.9838078803206236,1
5447.0,1.9628473371804058,1
5457.0,1.936613085831511,1
5467.0,1.9134638050876394,1
5477.0,1.9036196777999745,1
5487.0,1.9140837608664385,1
5497.0,1.9437224209140977,1
5507.0,1.982047670787694,1
5517.0,2.0128729077740015,1
5527.0,2.0204595973617367,1
5537.0,1.9950099829267445,1
5547.0,1.9358829347815885,1
5557.0,1.8521096638084302,1
5567.0,1.7601083283935672,1
5577.0,1.6790151119631591,1
5587.0,1.6250959278438932,1
5597.0,1.6068483309760575,1
5607.0,1.6328244663517761,1
5617.0,1.7068771294949157,1
5627.0,1.7794076949281163,1
5637.0,1.839479175110263,1
5647.0,1.8820089749390547,1
5657.0,1.9072955462478358,1
5667.0,1.9192259484245249,1
5677.0,1.9230935596628584,1
5687.0,1.9237104322572953,1
5697.0,1.9243016104813053,1
5707.0,1.9263203058674474,1
5717.0,1.929896248023723,1
5727.0,1.9343962377380102,1
5737.0,1.9386921203175898,1
5747.0,1.9410956819933647,1
5757.0,1.9392596522904044,1
5767.0,1.9304227076439426,1
5777.0,1.912201337261161,1
5787.0,1.883872807787713,1
5797.0,1.8477788693774468,1
5807.0,1.8100439507223305,1
5817.0,1.7794964343180562,1
5827.0,1.7642017492382611,1
5837.0,1.7668530954113582,1
5847.0,1.7821323908881324,1
5857.0,1.7982334291552138,1
5867.0,1.8013879683626182,1
5877.0,1.7804859642501438,1
5887.0,1.7299127272426817,1
5897.0,1.6503411708744788,1
5907.0,1.5563958720719118,1
5917.0,1.4602152115914797,1
5927.0,1.3606819046242788,1
5937.0,1.2680886948361854,1
5947.0,1.1908601801737766,1
5957.0,1.1674585399439645,1
5967.0,1.1654367081998807,1
5977.0,1.1756085974545023,1
5987.0,1.1965551530115983,1
5997.0,1.2189115776636739,1
6007.0,1.2336436697212831,1
6017.0,1.2396751295561854,1
6027.0,1.2493126159511303,1
6037.0,1.2605021960691822,1
6047.0,1.296165016231857,1
6057.0,1.3292094789886455,1
6067.0,1.3551369594643607,1
6077.0,1.374598569334382,1
6087.0,1.3901841138038844,1
6097.0,1.4054023352506144,1
6107.0,1.4226297832762036,1
6117.0,1.44126478700801,1
6127.0,1.4575026099679511,1
6137.0,1.465978987472404,1
6147.0,1.4621760229769463,1
6157.0,1.4443120457965837,1
6167.0,1.41413658726522,1
6177.0,1.3766565875002725,1
6187.0,1.338999939663729,1
6197.0,1.3085760215000217,1
6207.0,1.3013167512614117,1
6217.0,1.3214735256894639,1
6227.0,1.3390590594494383,1
6237.0,1.3519682640555422,1
6247.0,1.3602915952010652,1
6257.0,1.3827810366976585,1
6267.0,1.408389859882178,1
6277.0,1.4383509521578661,1
6287.0,1.4721758996628926,1
6297.0,1.5065160921692953,1
6307.0,1.5363636967690397,1
6317.0,1.5569500236162828,1
6327.0,1.5653456479724204,1
6337.0,1.5612630460140045,1
6347.0,1.5469838191934375,1
6357.0,1.5366884928512805,1
6367.0,1.5393876567647915,1
6377.0,1.5376622512769398,1
6387.0,1.5322721867473854,1
6397.0,1.5238001803366907,1
6407.0,1.513350819973105,1
6417.0,1.5030833793415719,1
6427.0,1.496132290314073,1
6437.0,1.5021040367777654,1
6447.0,1.5153524042030317,1
6457.0,1.535298432888813,1
6467.0,1.558832979860345,1
6477.0,1.581245522971792,1
6487.0,1.5979742920275686,1
6497.0,1.6112265993412451,1
6507.0,1.6128002389438905,1
6517.0,1.609945428366578,1
6527.0,1.6133858106538728,1
6537.0,1.6116728664534592,1
6547.0,1.6056503756471432,1
6557.0,1.5950239720053272,1
6567.0,1.5790352578063742,1
6577.0,1.5574028944222302,1
6587.0,1.5310853746066129,1
6597.0,1.5026067718955654,1
6607.0,1.475799984184968,1
6617.0,1.454875167118973,1
6627.0,1.4429239824829758,1
6637.0,1.440495812622538,1
6647.0,1.4452824396233557,1
6657.0,1.4532761159346559,1
6667.0,1.4604954492475795,1
6677.0,1.4641479217553492,1
6687.0,1.4628657488243693,1
6697.0,1.45626904143362,1
6707.0,1.4442469248556788,1
6717.0,1.4262554629189355,1
6727.0,1.4008891465519293,1
6737.0,1.3660508631427017,1
6747.0,1.3198757405668262,1
6757.0,1.2620215794301053,1
6767.0,1.1946487432887793,1
6777.0,1.127699770753569,1
6787.0,1.0789088962693105,1
6797.0,1.037647779768397,1
6807.0,1.0092649340090791,1
6817.0,0.9961674263100929,1
6827.0,0.9974541403241923,1
6837.0,1.009750447786653,1
6847.0,1.0286224073588346,1
6857.0,1.0510324168638796,1
6867.0,1.0904599272781679,1
6877.0,1.1271017112749093,1
6887.0,1.1591906408693236,1
6897.0,1.1862966532337553,1
6907.0,1.20890198876635,1
6917.0,1.2279634913983768,1
6927.0,1.2526748649168422,1
6937.0,1.2809908420074647,1
6947.0,1.3057652821051986,1
6957.0,1.3268520820821461,1
6967.0,1.3439334705043715,1
6977.0,1.3565739679557602,1
6987.0,1.3661674437113702,1
6997.0,1.3856421159243162,1
7007.0,1.3990103426088714,1
7017.0,1.403710184186222,1
7027.0,1.4033022831256905,1
7037.0,1.3982699248660495,1
7047.0,1.3903337105919538,1
7057.0,1.3864786516558023,1
7067.0,1.3932595669394974,1
7077.0,1.4144435842094,1
7087.0,1.4494259384949792,1
7097.0,1.4934268910710014,1
7107.0,1.5392393627942629,1
7117.0,1.579435064499702,1
7127.0,1.6081650499628615,1
7137.0,1.6222548181669039,1
7147.0,1.62157856063414,1
7157.0,1.6087380277136014,1
7167.0,1.5880919154429793,1
7177.0,1.5643213307076067,1
7187.0,1.5409628347957982,1
7197.0,1.5194791793531344,1
7207.0,1.4992211247533733,1
7217.0,1.478159547369272,1
7227.0,1.453939923938929,1
7237.0,1.4248276495184269,1
7247.0,1.390316874229019,1
7257.0,1.3542798976899522,1
7267.0,1.3192932791814431,1
7277.0,1.2857356823984278,1
7287.0,1.253541410807364,1
7297.0,1.2244196015368325,1
7307.0,1.2017551872237084,1
7317.0,1.1897759568259236,1
7327.0,1.1865305884655841,1
7337.0,1.189851433309479,1
7347.0,1.1971435377351238,1
7357.0,1.2024199307965076,1
7367.0,1.197733471313736,1
7377.0,1.1769786541405995,1
7387.0,1.1363989919763893,1
7397.0,1.0756155335383553,1
7407.0,0.99825200197342,1
7417.0,0.9120162135267493,1
7427.0,0.8278958402159633,1
7437.0,0.7578775623849159,1
7447.0,0.7109519325359062,1
7457.0,0.6890703061878198,1
7467.0,0.6864618387501251,1
7477.0,0.6934013050804737,1
7487.0,0.701307979951275,1
7497.0,0.7057173716777627,1
7507.0,0.7064070455347078,1
7517.0,0.7101319083012446,1
7527.0,0.7213731648670566,1
7537.0,0.7330021999723324,1
7547.0,0.7436970163099701,1
7557.0,0.7518027947046524,1
7567.0,0.7561835637659147,1
7577.0,0.7566115557563086,1
7587.0,0.7537992000585811,1
7597.0,0.7493780693522324,1
7607.0,0.7458517545557275,1
7617.0,0.7462637996446756,1
7627.0,0.7534664833589384,1
7637.0,0.7693025855545349,1
7647.0,0.7941803215903742,1
7657.0,0.8271857028661462,1
7667.0,0.8664736308615555,1
7677.0,0.9096611163484711,1
7687.0,0.9541511062677206,1
7697.0,0.9974079551653952,1
7707.0,1.037177515287346,1
7717.0,1.0716361093118345,1
7727.0,1.0994762637867577,1
7737.0,1.119942362070064,1
7747.0,1.132820166299267,1
7757.0,1.1383885101823359,1
7767.0,1.1373613085288334,1
7777.0,1.1339047821974055,1
7787.0,1.127598067840425,1
7797.0,1.1198987455175158,1
7807.0,1.1132919367404326,1
7817.0,1.1097957928006,1
7827.0,1.1104558671335412,1
7837.0,1.1149645120676335,1
7847.0,1.1217677207485188,1
7857.0,1.1287271509798975,1
7867.0,1.1339626554835802,1
7877.0,1.1364250404947636,1
7887.0,1.1359816294781897,1
7897.0,1.1330303400670723,1
7907.0,1.1278636390769934,1
7917.0,1.1201815062943528,1
7927.0,1.1090896223061573,1
7937.0,1.0935621589840072,1
7947.0,1.0730265777606376,1
7957.0,1.0476836785471972,1
7967.0,1.0183508430654553,1
7977.0,0.9859100095497525,1
7987.0,0.9507572337326973,1
7997.0,0.9127470105401814,1
8007.0,0.8766465112720406,1
8017.0,0.8488763471976615,1
8027.0,0.8239390966254964,1
8037.0,0.8049113834927974,1
8047.0,0.7946975061133157,1
8057.0,0.7948503445545575,1
8067.0,0.815574613546584,1
8077.0,0.862777723019477,1
8087.0,0.9194733262543751,1
8097.0,0.9704340940712629,1
8107.0,1.0103035504684241,1
8117.0,1.0516701545212825,1
8127.0,1.0931295386514541,1
8137.0,1.1154777821455135,1
8147.0,1.1217929824126178,1
8157.0,1.1186753314492173,1
8167.0,1.1151292026993214,1
8177.0,1.1201620728171768,1
8187.0,1.1416762102854228,1
8197.0,1.1739430429469957,1
8207.0,1.218495723524385,1
8217.0,1.266025450409351,1
8227.0,1.3094802490039306,1
8237.0,1.3437928249969824,1
8247.0,1.366466230486115,1
8257.0,1.3773780181864874,1
8267.0,1.378282831194021,1
8277.0,1.3723236001511756,1
8287.0,1.3636029420623583,1
8297.0,1.3566180861008832,1
8307.0,1.3553307459674282,1
8317.0,1.3760171649408706,1
8327.0,1.4112250007600415,1
8337.0,1.4545150921461816,1
8347.0,1.506332221415287,1
8357.0,1.556104218934773,1
8367.0,1.5932765901021109,1
8377.0,1.6134015799118726,1
8387.0,1.6151771727099606,1
8397.0,1.6005970999787067,1
8407.0,1.5990199038019626,1
8417.0,1.626343751041505,1
8427.0,1.6482839464992687,1
8437.0,1.6666203219836004,1
8447.0,1.6816932945090974,1
8457.0,1.6923745813352422,1
8467.0,1.696664323831631,1
8477.0,1.7030545118265272,1
8487.0,1.6996847894574385,1
8497.0,1.6818491187978626,1
8507.0,1.6513652942303163,1
8517.0,1.6224405956452983,1
8527.0,1.5908741660781378,1
8537.0,1.5802869514160236,1
8547.0,1.590949176716422,1
8557.0,1.6178475624856206,1
8567.0,1.66942738844592,1
8577.0,1.755922795857241,1
8587.0,1.844047715412389,1
8597.0,1.9371374436655473,1
8607.0,2.0106600482556427,1
8617.0,2.059111790591905,1
8627.0,2.0816089204913615,1
8637.0,2.0813534325759915,1
8647.0,2.0645147211448998,1
8657.0,2.038721977098108,1
8667.0,2.011501028600833,1
8677.0,1.9893200968003928,1
8687.0,1.9934261179371204,1
8697.0,2.0135935369945748,1
8707.0,2.0492083773228655,1
8717.0,2.098352335854268,1
8727.0,2.1582657106216456,1
8737.0,2.2258736936284196,1
8747.0,2.298526647101299,1
8757.0,2.3747816175706027,1
8767.0,2.45482432163422,1
8777.0,2.540154566117622,1
8787.0,2.6323438791603775,1
8797.0,2.7310703397928324,1
8807.0,2.832298295387419,1
8817.0,2.927892518621068,1
8827.0,3.0219956859446655,1
8837.0,3.0920212911723084,1
8847.0,3.1281606077772093,1
8857.0,3.1308754604254814,1
8867.0,3.1061762850051515,1
8877.0,3.064169618695492,1
8887.0,3.0169772042688736,1
8897.0,2.9763373988615887,1
8907.0,2.951138098897478,1
8917.0,2.9453315997320404,1
8927.0,2.9570547116857515,1
8937.0,2.9796596094514243,1
8947.0,3.0043877148993805,1
8957.0,3.023433542236665,1
8967.0,3.032109315117623,1
8977.0,3.029527100120462,1
8987.0,3.017928125594819,1
8997.0,3.0011825790923465,1
9007.0,2.983088585357735,1
9017.0,2.9659896906308445,1
9027.0,2.9499766739690685,1
9037.0,2.9326775071260984,1
9047.0,2.909525123973525,1
9057.0,2.87445218796582,1
9067.0,2.821042117907245,1
9077.0,2.74410355560533,1
9087.0,2.641440438104337,1
9097.0,2.5153956417368923,1
9107.0,2.373627791579175,1
9117.0,2.2285068782050304,1
9127.0,2.0945800037721813,1
9137.0,1.9843358603423424,1
9147.0,1.9042905300751074,1
9157.0,1.8644600124664072,1
9167.0,1.8522595600800873,1
9177.0,1.848618656310642,1
9187.0,1.8434129405298088,1
9197.0,1.8293404086203333,1
9207.0,1.803337825781454,1
9217.0,1.7666957876839509,1
9227.0,1.723887597860473,1
9237.0,1.6805953925352182,1
9247.0,1.64168281643586,1
9257.0,1.6098386039569683,1
9267.0,1.585222194021489,1
9277.0,1.5659326442087318,1
9287.0,1.5487029813451958,1
9297.0,1.5396437735731072,1
9307.0,1.517058571404842,1
9317.0,1.4761451175582705,1
9327.0,1.4165433018756735,1
9337.0,1.3404612745112374,1
9347.0,1.2524757885019917,1
9357.0,1.1591068050069224,1
9367.0,1.0681291646653819,1
9377.0,0.9882443947290966,1
9387.0,0.9325005457056365,1
9397.0,0.9098341362386372,1
9407.0,0.9037118055612392,1
9417.0,0.9059354005283373,1
9427.0,0.9080486535995527,1
9437.0,0.9030432651852601,1
9447.0,0.8893963960591185,1
9457.0,0.8707569391853657,1
9467.0,0.843000583583198,1
9477.0,0.809061397274693,1
9487.0,0.7726523132546479,1
9497.0,0.737224593398832,1
9507.0,0.7051717455171056,1
9517.0,0.6775086539288135,1
9527.0,0.6540572664074571,1
9537.0,0.6339146532323937,1
9547.0,0.6158925507769644,1
9557.0,0.5987700914201609,1
9567.0,0.5814209589586825,1
9577.0,0.5629609418489362,1
9587.0,0.5437160121469112,1
9597.0,0.5278004113577395,1
9607.0,0.5109179644338744,1
9617.0,0.4944314991443163,0
9627.0,0.48002257143460664,0
9637.0,0.46903025332712084,0
9647.0,0.46188250063758074,0
9657.0,0.45974348614763283,0
9667.0,0.4686973609385822,0
9677.0,0.4805674194467851,0
9687.0,0.4943905986744029,0
9697.0,0.5163345114078002,0
9707.0,0.5526736809645503,0
9717.0,0.589611615957428,0
9727.0,0.6243087740696194,0
9737.0,0.6545346626125195,0
9747.0,0.6789941067853903,0
9757.0,0.6973909213036771,0
9767.0,0.7102648310856146,0
9777.0,0.7186846679140863,0
9787.0,0.7239100744510796,0
9797.0,0.7271310267878174,0
9807.0,0.7293529029989233,0
9817.0,0.7314226293430963,0
9827.0,0.7341175544799711,0
9837.0,0.738195027723699,0
9847.0,0.7443565447069229,0
9857.0,0.7531628746670964,0
9867.0,0.7649530847984136,0
9877.0,0.7797656017129809,0
9887.0,0.797232904439372,0
9897.0,0.8164756793509105,0
9907.0,0.8360756461167156,0
9917.0,0.8541784643972007,1
9927.0,0.8687238053240551,1
9937.0,0.8777907147577129,1
9947.0,0.8800364385870758,1
9957.0,0.8780203437784022,1
9967.0,0.8719462279664278,1
9977.0,0.8621982372860244,1
9987.0,0.8508276054102966,1
9997.0,0.8432841425030233,1
10007.0,0.839743568612652,1
10017.0,0.8375577736241628,1
10027.0,0.8356874091499222,1
10037.0,0.8335512831435355,1
10047.0,0.8314214964015019,1
10057.0,0.8302193960873936,1
10067.0,0.8309226066189759,1
10077.0,0.8339836232177406,1
10087.0,0.8390781602760451,1
10097.0,0.8494945209433118,1
10107.0,0.8629192249709408,1
10117.0,0.8721929763104213,1
10127.0,0.8780813405500645,1
10137.0,0.8831183496142685,1
10147.0,0.890650310704582,1
10157.0,0.9033700531783366,1
10167.0,0.9219298211210066,1
10177.0,0.9444942927332555,1
10187.0,0.9792032707456921,1
10197.0,1.0085600986877081,1
10207.0,1.0299577641346116,1
10217.0,1.0427061639024677,1
10227.0,1.047904464492808,1
10237.0,1.0479149891402875,1
10247.0,1.0455358253562608,1
10257.0,1.043110703302493,1
10267.0,1.0419013929064453,1
10277.0,1.0419822603604136,1
10287.0,1.0426654288609902,1
10297.0,1.043189254459436,1
10307.0,1.0432839744368185,1
10317.0,1.0433184082810791,1
10327.0,1.043967647055163,1
10337.0,1.045618074027049,1
10347.0,1.0479187555009233,1
10357.0,1.0498369044793279,1
10367.0,1.0502242224329676,1
10377.0,1.048514211770759,1
10387.0,1.0450873259399516,1
10397.0,1.0410583522473966,1
10407.0,1.0375484264485748,1
10417.0,1.0347875572580711,1
10427.0,1.0315684853106557,1
10437.0,1.0254518054750408,1
10447.0,1.0136613160209447,1
10457.0,0.9941920338822803,1
10467.0,0.9666722373139307,1
10477.0,0.9328495962198071,1
10487.0,0.8967846034971333,1
10497.0,0.8645296595168847,1
10507.0,0.8424777778678152,1
10517.0,0.8348246980567355,1
10527.0,0.8428322946278762,1
10537.0,0.8657817918777514,1
10547.0,0.901175979160487,1
10557.0,0.9443415948412325,1
10567.0,0.9888300606279548,1
10577.0,1.0278721427662854,1
10587.0,1.0561046801995329,1
10597.0,1.072734077423986,1
10607.0,1.0800248431482635,1
10617.0,1.074294231174467,1
10627.0,1.06229781765221,1
10637.0,1.0524321663030385,1
10647.0,1.1054966488953741,1
10657.0,1.1758037970058868,1
10667.0,1.268631325731739,1
10677.0,1.3745197159257014,1
10687.0,1.4831774027501297,1
10697.0,1.5843260367132366,1
10707.0,1.669752643040339,1
10717.0,1.7383318915200114,1
10727.0,1.791676274728498,1
10737.0,1.8334913968277071,1
10747.0,1.868367141357915,1
10757.0,1.900231138324461,1
10767.0,1.9310364916991543,1
10777.0,1.9603626790845894,1
10787.0,1.9860980107927788,1
10797.0,2.005675491856748,1
10807.0,2.0171879768151117,1
10817.0,2.0200525826713585,1
10827.0,2.0152085082139832,1
10837.0,2.0049268133748415,1
10847.0,1.9923292824478698,1
10857.0,1.9807973976808315,1
10867.0,1.9735306537519035,1
10877.0,1.9733796607568008,1
10887.0,1.982733021938544,1
10897.0,2.0030240570833193,1
10907.0,2.033664823484628,1
10917.0,2.070823088228923,1
10927.0,2.1069690989810312,1
10937.0,2.131982526857256,1
10947.0,2.1357692660741514,1
10957.0,2.1114979299326104,1
10967.0,2.0747703339786367,1
10977.0,2.0210568269583744,1
10987.0,1.9571023631972526,1
10997.0,1.8981467133494556,1
11007.0,1.8593454264286402,1
11017.0,1.8268958522619263,1
11027.0,1.8033781309624906,1
11037.0,1.7909631870095932,1
11047.0,1.7825405898666646,1
11057.0,1.7793765150690348,1
11067.0,1.7604150746241722,1
11077.0,1.7362799768191648,1
11087.0,1.7387702116091703,1
11097.0,1.7536533916090524,1
11107.0,1.7800997020303717,1
11117.0,1.8133592854935165,1
11127.0,1.8678403917078068,1
11137.0,1.9228045057465015,1
11147.0,1.9583508593766596,1
11157.0,1.972207439484469,1
11167.0,1.9692624183430993,1
11177.0,1.9594258872600634,1
11187.0,1.9536270400068374,1
11197.0,1.9593145771289713,1
11207.0,1.9780293298375273,1
11217.0,2.006417904604407,1
11227.0,2.0392768449610603,1
11237.0,2.0887517474645425,1
11247.0,2.144209977435809,1
11257.0,2.1917473597790105,1
11267.0,2.2295527814131257,1
11277.0,2.2561321970953006,1
11287.0,2.2700164878225952,1
11297.0,2.270662547901648,1
11307.0,2.2597140121107806,1
11317.0,2.241485321423927,1
11327.0,2.222067032068627,1
11337.0,2.2072333775167703,1
11347.0,2.199981191351677,1
11357.0,2.198874392323588,1
11367.0,2.198152702040778,1
11377.0,2.189646670493187,1
11387.0,2.1655518971986245,1
11397.0,2.1209520006829643,1
11407.0,2.0555601993833834,1
11417.0,1.974710683664437,1
11427.0,1.921909713733744,1
11437.0,1.9096330110169875,1
11447.0,1.9249449707228528,1
11457.0,1.9533884230251026,1
11467.0,1.9951734073554879,1
11477.0,2.0664891978730235,1
11487.0,2.132860217941941,1
11497.0,2.1905000902703544,1
11507.0,2.2343132170648268,1
11517.0,2.237614525282962,1
11527.0,2.202629187057181,1
11537.0,2.1398209540344824,1
11547.0,2.06571144823565,1
11557.0,1.9988372676579917,1
11567.0,1.9542515388879194,1
11577.0,1.9386111066948102,1
11587.0,1.948778200463395,1
11597.0,1.9748554383290768,1
11607.0,2.0053392809269495,1
11617.0,2.031319503821071,1
11627.0,2.0483208692716426,1
11637.0,2.0576775330227486,1
11647.0,2.064801216371019,1
11657.0,2.0658786821893935,1
11667.0,2.0634178412246276,1
11677.0,2.064091739100108,1
11687.0,2.0661435383621463,1
11697.0,2.0672182977265985,1
11707.0,2.0678375241235387,1
11717.0,2.0684984553649075,1
11727.0,2.068155824190828,1
11737.0,2.062804572243485,1
11747.0,2.045275597029633,1
11757.0,2.006721874047409,1
11767.0,1.9393224124208324,1
11777.0,1.8392402667519518,1
11787.0,1.708995721602316,1
11797.0,1.5587456293904904,1
11807.0,1.4440581929035514,1
11817.0,1.3998731892877558,1
11827.0,1.3701496599899454,1
11837.0,1.3507748181701822,1
11847.0,1.3429869768127412,1
11857.0,1.3440381263388637,1
11867.0,1.3493578147987249,1
11877.0,1.3610580410655109,1
11887.0,1.3832238993700374,1
11897.0,1.3958103899752796,1
11907.0,1.3955428764047157,1
11917.0,1.382751610594451,1
11927.0,1.3741458738502086,1
11937.0,1.3824651329248896,1
11947.0,1.391461726439311,1
11957.0,1.402004311459918,1
11967.0,1.413916716575849,1
11977.0,1.426121256608272,1
11987.0,1.4373119308220734,1
11997.0,1.4465490435156763,1
12007.0,1.453314526929583,1
12017.0,1.4570259682839808,1
12027.0,1.4563985748030877,1
12037.0,1.4491729469279986,1
12047.0,1.432517416923618,1
12057.0,1.4040143943740147,1
12067.0,1.3628459983010757,1
12077.0,1.31075094963889,1
12087.0,1.2524281338693843,1
12097.0,1.1951301857790197,1
12107.0,1.1471411859641156,1
12117.0,1.1148810898067822,1
12127.0,1.0993091587330461,1
12137.0,1.094214014297655,1
12147.0,1.0886535414127483,1
12157.0,1.071834277884131,1
12167.0,1.0369612371841956,1
12177.0,0.9828278285575887,1
12187.0,0.9136663638434761,1
12197.0,0.8377590952449945,1
12207.0,0.7649769564958986,1
12217.0,0.7036422064532293,1
12227.0,0.6574445064260033,1
12237.0,0.6339720343395897,1
12247.0,0.6071771453726267,1
12257.0,0.5770586104066189,1
12267.0,0.5384263374991758,1
12277.0,0.4927059855396884,0
12287.0,0.4440109337256043,0
12297.0,0.4009739773533032,0
12307.0,0.3770660763425522,0
12317.0,0.36866120455530454,0
12327.0,0.3677597323054523,0
12337.0,0.3657248461034923,0
12347.0,0.36162714926190703,0
12357.0,0.3556762760025458,0
12367.0,0.34878063701938367,0
12377.0,0.341920914029373,0
12387.0,0.3355624487176161,0
12397.0,0.3294155464684966,0
12407.0,0.3227328228862404,0
12417.0,0.3148381476929293,0
12427.0,0.3054498671201981,0
12437.0,0.2947150424301489,0
12447.0,0.28308833121342575,0
12457.0,0.27116843607712754,0
12467.0,0.2595447461635525,0
12477.0,0.24867814270779223,0
12487.0,0.23883094103171365,0
12497.0,0.23005443048933402,0
12507.0,0.2222299112598915,0
12517.0,0.21514180870628163,0
12527.0,0.20855146286077714,0
12537.0,0.20224769314006452,0
12547.0,0.19606864110506242,0
12557.0,0.18990342850063702,0
12567.0,0.18368519964858754,0
12577.0,0.1773830522443836,0
12587.0,0.17099529168303843,0
12597.0,0.16454352349749696,0
12607.0,0.1580665008216105,0
12617.0,0.15161326820817386,0
12627.0,0.14523595144101847,0
12637.0,0.1389830301606751,0
12647.0,0.13289400878750213,0
12657.0,0.12699615798358252,0
12667.0,0.12130356571244752,0
12677.0,0.1158182631004164,0
12687.0,0.11053282239048079,0
12697.0,0.10543366157381301,0
12707.0,0.10050434642894776,0
12717.0,0.09572838774954123,0
12727.0,0.09109128506616898,0
12737.0,0.08658178077949444,0
12747.0,0.08219242026246207,0
12757.0,0.07791956916706799,0
12767.0,0.07376304643317569,0
12777.0,0.0697255176950767,0
12787.0,0.06581177503994179,0
12797.0,0.06204786050329644,0
12807.0,0.058932983666590055,0
12817.0,0.055932812373052046,0
12827.0,0.0530552894671929,0
12837.0,0.05030793650503199,0
12847.0,0.0476976490548424,0
12857.0,0.04523051359877785,0
12867.0,0.04291153849012594,0
12877.0,0.040744221176263584,0
12887.0,0.03872996716223742,0
12897.0,0.0368675162383145,0
12907.0,0.03515264112759458,0
12917.0,0.03357835692702916,0
12927.0,0.03213568687046167,0
12937.0,0.030814787318323447,0
12947.0,0.029606112923663656,0
12957.0,0.028501360259908116,0
12967.0,0.02749407960010418,0
12977.0,0.026579973656339857,0
12987.0,0.02600127700862989,0
12997.0,0.025553753275218187,0
13007.0,0.02516879575845442,0
13017.0,0.0248475561393251,0
13027.0,0.02459182228135421,0
13037.0,0.024403213565480482,0
13047.0,0.024282220915695242,0
13057.0,0.024227280127030335,0
13067.0,0.024234164250385097,0
13077.0,0.024295941677770265,0
13087.0,0.02440354129550339,0
13097.0,0.024546714641915532,0
13107.0,0.02471506187043685,0
13117.0,0.02489885074741001,0
13127.0,0.02508951616532044,0
13137.0,0.025279863818898823,0
13147.0,0.025524772503010492,0
13157.0,0.025806215481690008,0
13167.0,0.026070694127250063,0
13177.0,0.02631528675749065,0
13187.0,0.02653786788988939,0
13197.0,0.02673694941655517,0
13207.0,0.026911548340639548,0
13217.0,0.027061078993943447,0
13227.0,0.027185266554560772,0
13237.0,0.027284078548168535,0
13247.0,0.027357671241911484,0
13257.0,0.027406348120328994,0
13267.0,0.0274305279463223,0
13277.0,0.0274307202649791,0
13287.0,0.027407506547090166,0
13297.0,0.027361525503387663,0
13307.0,0.027293461435761175,0
13317.0,0.027340909145055752,0
13327.0,0.02737078233698264,0
13337.0,0.02737487758049518,0
13347.0,0.027354055669536737,0
13357.0,0.027309199031551358,0
13367.0,0.027241205762076344,0
13377.0,0.027150984466272964,0
13387.0,0.02703944970556684,0
13397.0,0.02690751787160816,0
13407.0,0.02675610333748376,0
13417.0,0.02658611473801574,0
13427.0,0.02639845129343423,0
13437.0,0.026193999177387843,0
13447.0,0.025973627981510677,0
13457.0,0.025738187417425954,0
13467.0,0.02548850448825475,0
13477.0,0.02522538136962045,0
13487.0,0.024949594232096778,0
13497.0,0.024661893196033603,0
13507.0,0.024363003448692973,0
13517.0,0.02405362736705615,0
13527.0,0.023734447324363916,0
13537.0,0.0234061286844732,0
13547.0,0.023069322467007346,0
13557.0,0.022724667343378056,0
13567.0,0.02237279078959936,0
13577.0,0.02201430935365912,0
13587.0,0.021649828159984404,0
13597.0,0.021279939866422033,0
13607.0,0.020905223316774205,0
13617.0,0.02052624217355407,0
13627.0,0.020143543789292104,0
13637.0,0.01975765848545159,0
13647.0,0.01936909934937285,0
13657.0,0.01897836257187939,0
13667.0,0.018585928224983613,0
13677.0,0.01819226131516526,0
13687.0,0.017797812895344885,0
13697.0,0.017403020953713884,0
13707.0,0.01700831081105612,0
13717.0,0.01661409481225226,0
13727.0,0.016220771146603363,0
13737.0,0.01582872175596698,0
13747.0,0.015438309453080501,0
13757.0,0.015049874498689147,0
13767.0,0.014663731036715963,0
13777.0,0.014280163923870189,0
13787.0,0.013899426512289524,0
13797.0,0.013521739906905885,0
13807.0,0.013147294108747543,0
13817.0,0.012776251181544514,0
13827.0,0.012408750240660602,0
13837.0,0.012044913735145522,0
13847.0,0.011684854179965131,0
13857.0,0.0113286803979186,0
13867.0,0.010976502532988843,0
13877.0,0.010628435379374725,0
13887.0,0.010284599856896549,0
13897.0,0.009945122780634988,0
13907.0,0.009610135292727709,0
13917.0,0.009279770432932016,0
13927.0,0.008954160400050154,0
13937.0,0.008633434026025242,0
13947.0,0.008317714855998462,0
13957.0,0.008007120106154054,0
13967.0,0.0077017606125644855,0
13977.0,0.007401741685730693,0
13987.0,0.007107164648924443,0
13997.0,0.006818128726657612,0
14007.0,0.006534732837769439,0
14017.0,0.006257076829633262,0
14027.0,0.005985261736597433,0
14037.0,0.005719388709942737,0
14047.0,0.005459556429204126,0
14057.0,0.005205857035091164,0
14067.0,0.004958370839989172,0
14077.0,0.004717160325851488,0
14087.0,0.004482264189550573,0
14097.0,0.004253692323858796,0
14107.0,0.004031422662208063,0
14117.0,0.003815400739561039,0
14127.0,0.0036055425176134857,0
14137.0,0.0034017405667773754,0
14147.0,0.0032038731719811805,0
14157.0,0.0030118153674840776,0
14167.0,0.002825450568404818,0
14177.0,0.002644681530802091,0
14187.0,0.0024694396624741774,0
14197.0,0.002299692106247232,0
14207.0,0.002135446503914825,0
14217.0,0.0019778113717904265,0
14227.0,0.0018489925347997746,0
14237.0,0.0017346546726130924,0
14247.0,0.0016233739931178993,0
14257.0,0.0015151901412908397,0
14267.0,0.0014101505095767833,0
14277.0,0.001308311329178558,0
14287.0,0.0012097399391273525,0
14297.0,0.0011145181278785447,0
14307.0,0.0010247719225669036,0
14317.0,0.0009468837029020312,0
14327.0,0.0008715555514352878,0
14337.0,0.0007989256341646612,0
14347.0,0.0007291642696544418,0
14357.0,0.0006624772792433117,0
14367.0,0.0005991075477322467,0
14377.0,0.0005527474684733935,0
14387.0,0.0005210267022139607,0
14397.0,0.0004931875242191044,0
14407.0,0.0004862788845116481,0
14417.0,0.0004907074338450554,0
14427.0,0.0004948647909192692,0
14437.0,0.0004985803531818928,0
14447.0,0.000501725046983609,0
14457.0,0.0005042052391195117,0
14467.0,0.0005059573553078231,0
14477.0,0.0005069431456267101,0
14487.0,0.0005071454164569261,0
14497.0,0.0005142894600896117,0
14507.0,0.0005210694066287874,0
14517.0,0.0005270367488577232,0
14527.0,0.0005321434018067679,0
14537.0,0.0005363609809523532,0
14547.0,0.0005396767137743627,0
14557.0,0.0005420897933744781,0
14567.0,0.0005436083370492601,0
14577.0,0.0005442469917940866,0
14587.0,0.0005440251442633631,0
14597.0,0.0005429656414189945,0
14607.0,0.0005410939041902681,0
14617.0,0.0005384373174285712,0
14627.0,0.0005370505213900209,0
14637.0,0.0005419645117923948,0
14647.0,0.0005459461047420029,0
14657.0,0.0005490002639463994,0
14667.0,0.0005511366470469451,0
14677.0,0.0005523679304589107,0
14687.0,0.0005527084607204395,0
14697.0,0.0005521732834881207,0
14707.0,0.0005507775137874127,0
14717.0,0.000554004897476066,0
14727.0,0.0005570532362543985,0
14737.0,0.0005589756062494562,0
14747.0,0.0005598031774443275,0
14757.0,0.0005595705477225823,0
14767.0,0.0005583144018933056,0
14777.0,0.0005560725245155667,0
14787.0,0.0005528833217717221,0
14797.0,0.0005487857323867207,0
14807.0,0.0005438192890663729,0
14817.0,0.0005380241076134083,0
14827.0,0.0005314406596954399,0
14837.0,0.0005241093257948988,0
14847.0,0.0005160698208071552,0
14857.0,0.000507360585967586,0
14867.0,0.0004980182225044814,0
14877.0,0.00048807700063547345,0
14887.0,0.00047756841310883077,0
14897.0,0.00046652073436178254,0
14907.0,0.00045495857794881136,0
14917.0,0.00044290246944302916,0
14927.0,0.00043036850548639394,0
14937.0,0.00041736822857549056,0
14947.0,0.00040390885742721,0
14957.0,0.00038999401323557204,0
14967.0,0.0003756250709155304,0
14977.0,0.00036080318683358233,0
14987.0,0.0003455319458665824,0
14997.0,0.0003298204476883655,0
15007.0,0.00031368647515490075,0
15017.0,0.00029715922742983437,0
15027.0,0.0002802810400459711,0
15037.0,0.0002631075504642181,0
15047.0,0.0002457059712549036,0
15057.0,0.00022815153465841135,0
15067.0,0.0002105226163257796,0
15077.0,0.00019289540642220197,0
15087.0,0.0001753391483553509,0
15097.0,0.0001579127280172997,0
15107.0,0.00014066290071544643,0
15117.0,0.00012362402578001437,0
15127.0,0.00010681892953802512,0
15137.0,9.026042853091305e-05,0
15147.0,7.395312969868087e-05,0
15157.0,5.789524762432869e-05,0
15167.0,4.2080250004003526e-05,0
15177.0,2.649820765309977e-05,0
15187.0,1.1136763385833554e-05,0
15197.0,-4.018359247885828e-06,0
15207.0,-1.89833313052737e-05,0
15217.0,-3.3776615161051835e-05,0
15227.0,-4.841965124235227e-05,0
15237.0,-6.29376224468833e-05,0
15247.0,-7.736001634574064e-05,0
15257.0,-9.172070306650654e-05,0
15267.0,-0.00010605726859038769,0
15277.0,-0.00011832750827344405,0
15287.0,-0.0001285180477581117,0
15297.0,-0.00013873230674287844,0
15307.0,-0.00014823083070093616,0
15317.0,-0.00015370983785369493,0
15327.0,-0.00015918844164889483,0
15337.0,-0.00016465462274861735,0
15347.0,-0.0001693098116977893,0
15357.0,-0.00017313997922634053,0
15367.0,-0.0001768434055949333,0
15377.0,-0.00018042567911785544,0
15387.0,-0.000183905113882488,0
15397.0,-0.00018731060209750195,0
15407.0,-0.00019067630960456136,0
15417.0,-0.00019403512877614188,0
15427.0,-0.0001974129843380066,0
15437.0,-0.0002008254063829941,0
15447.0,-0.00020427678717514037,0
15457.0,-0.00020776188733287386,0
15467.0,-0.00021126870087847965,0
15477.0,-0.00021478170132505775,0
15487.0,-0.00021828467039092088,0
15497.0,-0.00022176264320645145,0
15507.0,-0.00022520284242431163,0
15517.0,-0.00022859474419634768,0
15527.0,-0.00023192958184467327,0
15537.0,-0.00023519962748814202,0
15547.0,-0.00023839755005851198,0
15557.0,-0.00024151605208634752,0
15567.0,-0.0002445478264172395,0
15577.0,-0.0002474856865422333,0
15587.0,-0.00025032254733417655,0
15597.0,-0.0002524571951628864,0
15607.0,-0.0002538137672728362,0
15617.0,-0.0002552833810711986,0
15627.0,-0.0002568829300776935,0
15637.0,-0.0002586152476195107,0
15647.0,-0.00026046568973444787,0
15657.0,-0.0002624020453696021,0
15667.0,-0.00026437853582198705,0
15677.0,-0.0002663433122101845,0
15687.0,-0.0002682474347293581,0
15697.0,-0.00026872013769520194,0
15707.0,-0.00026876064366715717,0
15717.0,-0.00026877361726837106,0
15727.0,-0.00026879983244865353,0
15737.0,-0.00026886831543491806,0
15747.0,-0.00026899210497013015,0
15757.0,-0.00026916759201212536,0
15767.0,-0.0002693774144183601,0
15777.0,-0.00026959566700520554,0
15787.0,-0.0002697936630602768,0
15797.0,-0.00026994472861876487,0
15807.0,-0.00027002724071532863,0
15817.0,-0.0002700258932640489,0
15827.0,-0.0002699317315380758,0
15837.0,-0.0002697417163909148,0
15847.0,-0.00026945847996602486,0
15857.0,-0.00026909067257940215,0
15867.0,-0.0002686539421842843,0
15877.0,-0.0002681721964620005,0
15887.0,-0.0002676785160736482,0
15897.0,-0.0002672149706883758,0
15907.0,-0.0002668306930314273,0
15917.0,-0.00026657794143680904,0
15927.0,-0.0002665063998900073,0
15937.0,-0.00026665648577682517,0
15947.0,-0.00026705285572182634,0
15957.0,-0.00026769946193841204,0
15967.0,-0.00026857734613431667,0
15977.0,-0.0002696458071637353,0
15987.0,-0.00027084660199848187,0
15997.0,-0.00027210968152899663,0
16007.0,-0.0002733580856927951,0
16017.0,-0.0002745097070779523,0
16027.0,-0.0002754753934449922,0
16037.0,-0.00027615633697084663,0
16047.0,-0.00027644768051119197,0
16057.0,-0.00027625518603698306,0
16067.0,-0.0002755205094437979,0
16077.0,-0.0002742359693009895,0
16087.0,-0.0002724374256559155,0
16097.0,-0.00027018634476841207,0
16107.0,-0.00026755510609357717,0
16117.0,-0.00026461826494939884,0
16127.0,-0.00026144730776038574,0
16137.0,-0.0002581075071056961,0
16147.0,-0.00025465670262965446,0
16157.0,-0.0002511458376646361,0
16167.0,-0.0002476207426907654,0
16177.0,-0.00024412444003402123,0
16187.0,-0.00024042468211940674,0
16197.0,-0.00023678106351944793,0
16207.0,-0.00023329038499113683,0
16217.0,-0.0002299886080361475,0
16227.0,-0.00022690773476592485,0
16237.0,-0.00022407146202179577,0
16247.0,-0.00022149025385403843,0
16257.0,-0.00021915677458932286,0
16267.0,-0.00021704275454529574,0
16277.0,-0.0002150982234386836,0
16287.0,-0.00021325365123039204,0
16297.0,-0.00021142489290537988,0
16307.0,-0.00020952012873543796,0
16317.0,-0.0002074475341301824,0
16327.0,-0.00020512238344622472,0
16337.0,-0.00020247268311516544,0
16347.0,-0.0001994430208913226,0
16357.0,-0.00019599675532995577,0
16367.0,-0.0001921167632054029,0
16377.0,-0.00018780485739049835,0
16387.0,-0.0001830799224040214,0
16397.0,-0.00017797487553314754,0
16407.0,-0.00017253275503080094,0
16417.0,-0.0001668024645580799,0
16427.0,-0.0001608347780792791,0
16437.0,-0.00015467912134569314,0
16447.0,-0.00014838147170480166,0
16457.0,-0.0001413108491157087,0
16467.0,-0.0001340190814764585,0
16477.0,-0.0001267100611689353,0
16487.0,-0.00011941962260531107,0
16497.0,-0.00011218242975081972,0
16507.0,-0.00010503283107431522,0
16517.0,-9.800482185969191e-05,0
16527.0,-9.113091221774781e-05,0
16537.0,-8.443992054759454e-05,0
16547.0,-7.795394988421835e-05,0
16557.0,-7.168502166723139e-05,0
16567.0,-6.56320411452957e-05,0
16577.0,-5.977882240369901e-05,0
16587.0,-5.409375242189931e-05,0
16597.0,-4.853138671094837e-05,0
16607.0,-4.3035861336168585e-05,0
16617.0,-3.754559021219991e-05,0
16627.0,-3.1998490305513123e-05,0
16637.0,-2.633696994397516e-05,0
16647.0,-2.0512074058580584e-05,0
16657.0,-1.4486473950973235e-05,0
16667.0,-8.236263686032648e-06,0
16677.0,-1.7516331036054539e-06,0
16687.0,4.963493976862507e-06,0
16697.0,1.1892743359495841e-05,0
16707.0,1.9009357247239387e-05,0
16717.0,2.627882931880785e-05,0
16727.0,3.366178172058532e-05,0
16737.0,4.111672906585851e-05,0
16747.0,4.860241555523296e-05,0
16757.0,5.6079482231118965e-05,0
16767.0,6.351136593180274e-05,0
16777.0,7.086448343641359e-05,0
16787.0,7.810784266992161e-05,0
16797.0,8.521230462803909e-05,0
16807.0,9.214977197600322e-05,0
16817.0,9.88925538065237e-05,0
16827.0,0.00010541311997287881,0
16837.0,0.00011168440294258492,0
16847.0,0.00011768067150423435,0
16857.0,0.0001233788606548469,0
16867.0,0.00012888941259202237,0
16877.0,0.00013590963101534173,0
16887.0,0.00014245856878353688,0
16897.0,0.00014853498764798046,0
16907.0,0.0001541454802724659,0
16917.0,0.0001593020425187746,0
16927.0,0.0001640189303442753,0
16937.0,0.00016830939416833047,0
16947.0,0.0001721828218748723,0
16957.0,0.000175642673442054,0
16967.0,0.0001786853248699116,0
16977.0,0.00018129968412553614,0
16987.0,0.00018346738028826804,0
16997.0,0.00018516337122698114,0
17007.0,0.00018635686605143468,0
17017.0,0.00018701253860874708,0
17027.0,0.0001870920257088576,0
17037.0,0.00018655563522260805,0
17047.0,0.00018536416617632046,0
17057.0,0.000183480743360565,0
17067.0,0.00018087254992552235,0
17077.0,0.0001775123895917369,0
17087.0,0.00017338007028626026,0
17097.0,0.00016846359107002733,0
17107.0,0.00016276011971252718,0
17117.0,0.00015627675488814768,0
17127.0,0.0001490310071984235,0
17137.0,0.00014105090085303666,0
17147.0,0.00013330844926065727,0
17157.0,0.0001267699928318099,0
17167.0,0.00011980888100207232,0
17177.0,0.00011246697664268437,0
17187.0,0.00010478676887438779,0
17197.0,9.680809636442966e-05,0
17207.0,8.856458206219105e-05,0
17217.0,8.008041672531801e-05,0
17227.0,7.136839736906865e-05,0
17237.0,6.243026153911793e-05,0
17247.0,5.326017924194175e-05,0
17257.0,4.385177853973927e-05,0
17267.0,3.4208494468477355e-05,0
17277.0,2.4356528063744487e-05,0
17287.0,1.4359411822389659e-05,0
17297.0,4.333157394261772e-06,0
17307.0,-5.53894758707217e-06,0
17317.0,-1.499292905249405e-05,0
17327.0,-2.3673675505988055e-05,0
17337.0,-3.1130145309049205e-05,0
17347.0,-3.682052258207572e-05,0
17357.0,-4.013276555358162e-05,0
17367.0,-4.042485295246131e-05,0
17377.0,-3.708362405863726e-05,0
17387.0,-2.959163079659117e-05,0
17397.0,-1.7582886072540565e-05,0
17407.0,-8.687784216847487e-07,0
17417.0,2.0572564041588344e-05,0
17427.0,4.663431302036596e-05,0
17437.0,7.712864360157677e-05,0
17447.0,0.00011182857260255295,0
17457.0,0.00015592916055673654,0
17467.0,0.00021594101051598114,0
17477.0,0.00028091821615871594,0
17487.0,0.0003505540168606132,0
17497.0,0.0004245486408097532,0
17507.0,0.0005046683941504213,0
17517.0,0.0005939072159754778,0
17527.0,0.00068693852674553,0
17537.0,0.0007852677760383907,0
17547.0,0.000887542521303425,0
17557.0,0.0009928709488484456,0
17567.0,0.001101056894420561,0
17577.0,0.0012119626262425483,0
17587.0,0.0013255132174783153,0
17597.0,0.0014416956249340474,0
17607.0,0.0015605527610556419,0
17617.0,0.0016821736481846129,0
17627.0,0.0018066812204109194,0
17637.0,0.0019342193920342593,0
17647.0,0.002064940873391605,0
17657.0,0.0021989969151602748,0
17667.0,0.00233652967823472,0
17677.0,0.002477667483262422,0
17687.0,0.002622522826559181,0
17697.0,0.002771192673750808,0
17707.0,0.002923760310022625,0
17717.0,0.003080297954243333,0
17727.0,0.003240869300526494,0
17737.0,0.003405531233334048,0
17747.0,0.003574334193475571,0
17757.0,0.003747320888894342,0
17767.0,0.0039245233041085605,0
17777.0,0.004105958303851396,0
17787.0,0.004291622370715522,0
17797.0,0.0044814861963934005,0
17807.0,0.004675490031869829,0
17817.0,0.004873540714788286,0
17827.0,0.0050755111500306845,0
17837.0,0.005281242834016318,0
17847.0,0.005490551622919787,0
17857.0,0.00570323638606421,0
17867.0,0.00591908967008079,0
17877.0,0.00613790897984063,0
17887.0,0.006359506950152782,0
17897.0,0.006583718923461693,0
17907.0,0.006810407058982062,0
17917.0,0.007039460723903821,0
17927.0,0.0072707935477680135,0
17937.0,0.007504337991870402,0
17947.0,0.007740038443902983,0
17957.0,0.007977843873977469,0
17967.0,0.008217700995173691,0
17977.0,0.008459548587644226,0
17987.0,0.00870331336549146,0
17997.0,0.008948907531857358,0
18007.0,0.009196227878656532,0
18017.0,0.009445156085566555,0
18027.0,0.009695559796394384,0
18037.0,0.009947293963527412,0
18047.0,0.010200201948804753,0
18057.0,0.01045411599828607,0
18067.0,0.01070885681097333,0
18077.0,0.010964232056865466,0
18087.0,0.011220033931776778,0
18097.0,0.011476035995463839,0
18107.0,0.011731989657505461,0
18117.0,0.011987620843420482,0
18127.0,0.012242627420753075,0
18137.0,0.012496677902288094,0
18147.0,0.01274941189581872,0
18157.0,0.01300044257371015,0
18167.0,0.013249361094370256,0
18177.0,0.013495742601596122,0
18187.0,0.013739153048398154,0
18197.0,0.01397915574832246,0
18207.0,0.014215316632122096,0
18217.0,0.014447207551144025,0
18227.0,0.014674407335155654,0
18237.0,0.014896500729476979,0
18247.0,0.015113075679351908,0
18257.0,0.015323719539012546,0
18267.0,0.015528014825124885,0
18277.0,0.01572553511662793,0
18287.0,0.01591584152453071,0
18297.0,0.016098479989429294,0
18307.0,0.01627297955142928,0
18317.0,0.016438851557903464,0
18327.0,0.016595589656723843,0
18337.0,0.01674267041109878,0
18347.0,0.01687955432202003,0
18357.0,0.01700568703911558,0
18367.0,0.017120500638161597,0
18377.0,0.017223414884911227,0
18387.0,0.01731383843997894,0
18397.0,0.017391170070303233,0
18407.0,0.017454799961565126,0
18417.0,0.017504111202755485,0
18427.0,0.017538481560209224,0
18437.0,0.01755728563352807,0
18447.0,0.017559897408472865,0
18457.0,0.017545693252221516,0
18467.0,0.017514055401557496,0
18477.0,0.0174643759534366,0
18487.0,0.017396061428739753,0
18497.0,0.017308537965732118,0
18507.0,0.017201257071256103,0
18517.0,0.017073701930484807,0
18527.0,0.016925394494958924,0
18537.0,0.01675590371785682,0
18547.0,0.016564855491104896,0
18557.0,0.0163519450238808,0
18567.0,0.01611695245173572,0
18577.0,0.015859762540957167,0
18587.0,0.015580389507836233,0
18597.0,0.015279008111154872,0
18607.0,0.014955992444089874,0
18617.0,0.014611964331681819,0
18627.0,0.014247853828916576,0
18637.0,0.013864975099360757,0
18647.0,0.013465121995770499,0
18657.0,0.013050688763327217,0
18667.0,0.012624822275269856,0
18677.0,0.012191612751718473,0
18687.0,0.011756329039726893,0
18697.0,0.011325700656491387,0
18707.0,0.010908239385185665,0
18717.0,0.010514574327856147,0
18727.0,0.01015774161056102,0
18737.0,0.009853322054364792,0
18747.0,0.00961926621798452,0
18757.0,0.009475217719649003,0
18767.0,0.009441201228730777,0
18777.0,0.009535737337887094,0
18787.0,0.009773757173637227,0
18797.0,0.010164939767476355,0
18807.0,0.010713046257311266,0
18817.0,0.011416426388329265,0
18827.0,0.012269383807491898,0
18837.0,0.013263838927209178,0
18847.0,0.014390808791152761,0
18857.0,0.015641468756688585,0
18867.0,0.017007778885256706,0
18877.0,0.01848276997268784,0
18887.0,0.020060607306466305,0
18897.0,0.021736529614759317,0
18907.0,0.023506729515190155,0
18917.0,0.02536821508484214,0
18927.0,0.027318673785141113,0
18937.0,0.029356348867548954,0
18947.0,0.03147993214403595,0
18957.0,0.03368847375960761,0
18967.0,0.035981308134694266,0
18977.0,0.03835799456479008,0
18987.0,0.0408182706358817,0
18997.0,0.04336201654737125,0
19007.0,0.045989228374291716,0
19017.0,0.04869999819413828,0
19027.0,0.05149449902687264,0
19037.0,0.0543729725932663,0
19047.0,0.05733571796127157,0
19057.0,0.06038307943968421,0
19067.0,0.06351543251471861,0
19077.0,0.06673316710946152,0
19087.0,0.07003666814435164,0
19097.0,0.07342629414879312,0
19107.0,0.07690235527665479,0
19117.0,0.08046509255411703,0
19127.0,0.08411466028464828,0
19137.0,0.08785111296616074,0
19147.0,0.09167439723238097,0
19157.0,0.09558434858483963,0
19167.0,0.09958069201234807,0
19177.0,0.10366304518433272,0
19187.0,0.1078309228495689,0
19197.0,0.11208374114613898,0
19207.0,0.11642082074485618,0
19217.0,0.12084138815047862,0
19227.0,0.12534457484416572,0
19237.0,0.12992941425731533,0
19247.0,0.13459483690862548,0
19257.0,0.1393396642430848,0
19267.0,0.14416260178101753,0
19277.0,0.1490622322523456,0
19287.0,0.15403700933647455,0
19297.0,0.15908525244044094,0
19307.0,0.1642051427898128,0
19317.0,0.16939472089398838,0
19327.0,0.17465188514957197,0
19337.0,0.17997439114324196,0
19347.0,0.18535985105461422,0
19357.0,0.1908057323855597,0
19367.0,0.19630935524260537,0
19377.0,0.2018678875323992,0
19387.0,0.20747833759436207,0
19397.0,0.2131375441485388,0
19407.0,0.21884216391339184,0
19417.0,0.22458865765700636,0
19427.0,0.23037327586032047,0
19437.0,0.23619204541048952,0
19447.0,0.24204075848335488,0
19457.0,0.24791496425155934,0
19467.0,0.25380996355836216,0
19477.0,0.25972080619167953,0
19487.0,0.26564229003089584,0
19497.0,0.27156896124126567,0
19507.0,0.2774951146836444,0
19517.0,0.28341479380740353,0
19527.0,0.2893217895665961,0
19537.0,0.29520963815607404,0
19547.0,0.30107161758579154,0
19557.0,0.3069007433806188,0
19567.0,0.31268976386051306,0
19577.0,0.3184311554994398,0
19587.0,0.32411711889791744,0
19597.0,0.3297395758308901,0
19607.0,0.3352901676270035,0
19617.0,0.34076025494613293,0
19627.0,0.34614091879139053,0
19637.0,0.35142296229420156,0
19647.0,0.356596912619955,0
19657.0,0.36165302223328366,0
19667.0,0.36658126868999286,0
19677.0,0.37137135225568263,0
19687.0,0.37601269096157175,0
19697.0,0.38049441308566856,0
19707.0,0.38480534760873175,0
19717.0,0.38893401386960375,0
19727.0,0.39286861223794,0
19737.0,0.39659701817717596,0
19747.0,0.4001067824074095,0
19757.0,0.4033851396277385,0
19767.0,0.40641902750911185,0
19777.0,0.40919511661895547,0
19787.0,0.41169985056046876,0
19797.0,0.4139194941021387,0
19807.0,0.41584018570805836,0
19817.0,0.4174479897325236,0
19827.0,0.4187289428811072,0
19837.0,0.41966908970640615,0
19847.0,0.4202545029864115,0
19857.0,0.4204712869568331,0
19867.0,0.4203055646418447,0
19877.0,0.4197434546837491,0
19887.0,0.41877104772800444,0
19897.0,0.4173743971217908,0
19907.0,0.41553954261133075,0
19917.0,0.413252587977024,0
19927.0,0.4104998533829394,0
19937.0,0.4072681198906799,0
19947.0,0.40354497672053924,0
19957.0,0.39931927185486915,0
19967.0,0.39458165457826033,0
19977.0,0.38932518655977766,0
19987.0,0.38354598925024797,0
19997.0,0.37724389337499065,0
20007.0,0.3704230648851199,0
20017.0,0.3630926042858077,0
20027.0,0.3552671548192097,0
20037.0,0.34696760958287065,0
20047.0,0.33822207633711554,0
20057.0,0.32906733691608037,0
20067.0,0.31955111782367385,0
20077.0,0.3097355570220969,0
20087.0,0.2997022871712911,0
20097.0,0.2895595180192996,0
20107.0,0.279451320710289,0
20117.0,0.2695688809951281,0
20127.0,0.2601626359919683,0
20137.0,0.25155277556377403,0
20147.0,0.24413356907915496,0
20157.0,0.23836490032909927,0
20167.0,0.2347438475983578,0
20177.0,0.23375282112307935,0
20187.0,0.23579061779510885,0
20197.0,0.2411059264613959,0
20207.0,0.24975978130606513,0
20217.0,0.2616351276628577,0
20227.0,0.2764912351698125,0
20237.0,0.29404303065661674,0
20247.0,0.31404150306224893,0
20257.0,0.3363387583391107,0
20267.0,0.3609310055645872,0
20277.0,0.38797867215910165,0
20287.0,0.41780400487793534,0
20297.0,0.4508645486688825,0
20307.0,0.48769824619933533,0
20317.0,0.52883544660399,0
20327.0,0.574677576406502,0
20337.0,0.6253523957853623,0
20347.0,0.6805687266624969,0
20357.0,0.7395033821925966,0
20367.0,0.8007544999586227,0
20377.0,0.8623874076426048,1
20387.0,0.9220840986746411,1
20397.0,0.977388548568434,1
20407.0,1.0260194236860187,1
20417.0,1.0662012637382308,1
20427.0,1.0969493045516714,1
20437.0,1.1182385809215354,1
20447.0,1.1310016140867043,1
20457.0,1.1369339444799151,1
20467.0,1.1424518583182974,1
20477.0,1.147489545160031,1
20487.0,1.1519844098684406,1
20497.0,1.155880620050433,1
20507.0,1.1591314753823907,1
20517.0,1.1616993768524513,1
20527.0,1.1635522599759431,1
20537.0,1.1646557287551713,1
20547.0,1.1649606995748416,1
20557.0,1.1643869501886202,1
20567.0,1.1628033924811612,1
20577.0,1.160006140182106,1
20587.0,1.1556957880999452,1
20594.0,1.1494562447793322,1
