t_center,rms_emg1,rms_emg2,rms_emg3,rms_emg4,rms_emg5,rms_emg6,rms_emg7,rms_emg8,mean_z_emg1,mean_z_emg2,mean_z_emg3,mean_z_emg4,mean_z_emg5,mean_z_emg6,mean_z_emg7,mean_z_emg8,channel_count,frac_active,global_active
0.142,0.8447166819618734,0.6106090611210064,0.46787253664607176,0.87003283796099,0.6468572317920865,0.5803241135048705,1.1112637655577426,1.1831525436407637,-0.5895842203251866,-0.7914636753253894,-1.0878698679558385,-0.3336847105422778,-0.3418213656461294,-0.9545517300199625,-0.41079670802459256,0.13005441659701486,0,0.0,0
0.242,1.338684645006603,0.4856555107658897,0.6625203207541809,0.6939573192371516,0.7153198278653676,0.8684830398950489,1.1977051912424301,1.387787254144049,0.313791628428309,-1.140719965413937,-0.7341817446107051,-0.6721803027652317,-0.13595419521192015,-0.4315469822072197,-0.2245682896766558,0.832123203073334,0,0.0,0
0.34199999999999997,1.2919214159066288,0.49631045003399354,0.9623579411467557,0.7962381787756684,0.5278125507857524,0.867754990414595,1.2829707425266574,1.250935797668047,0.20076201197698906,-1.0924321670468704,-0.08649604256197854,-0.4589980176506561,-0.560058967050365,-0.4469523817825074,-0.10566886199764362,0.35961061218432044,0,0.0,0
0.442,1.0301330515060798,0.550287535914423,0.8698666710388242,0.917166763810264,0.3068811802380622,0.5497247196232781,1.1397026108400028,1.1015528541427784,-0.200227221910153,-0.915921082220961,-0.3551576797267192,-0.13146359366058277,-0.92862949866713,-0.997708267304715,-0.32216217407538694,-0.08741581160099421,0,0.0,0
0.542,0.9746084075122602,0.4826629842690215,0.5033189741899778,0.702473877963526,0.33743902140783755,0.6212020918399692,0.7519721914313634,0.8287967486952487,-0.34515790488090536,-1.0924901881655928,-1.0387907748674026,-0.7270792103852252,-0.875965153879744,-0.896334850360482,-0.8845315758502211,-1.3062560884226033,0,0.0,0
0.642,0.6630851694484394,0.3868028501561613,0.5160835925861742,0.43954741405080333,0.3488880731904951,0.7360121862939326,0.5025567901392548,0.46522737886051807,-0.8893950199627356,-1.3673596413128326,-1.0040287076636045,-1.297329052426273,-0.8682376525382504,-0.6547378522357734,-1.1645813556932145,-2.153839502056127,0,0.0,0
0.742,0.4909153838941834,0.643881600998844,0.8733530278084043,0.6490593568031683,0.5150709867741963,0.802265363032509,0.7426760277716252,0.5924799213539864,-1.1376802431690187,-0.9479463755132004,-0.3422201601868148,-0.8506624576325967,-0.5942263325282642,-0.5419052827589073,-0.8753521892036019,-1.6651026098058233,0,0.0,0
0.8420000000000001,0.46506208301646074,1.0779020335435128,1.101423267451407,0.8165766117885236,0.5940735321635655,0.7893298505433886,1.1948771396712374,0.8858237170706945,-1.1789695585528999,0.3098122773293156,0.20122482264311797,-0.3534160521704848,-0.3714750595834283,-0.5728708550043632,-0.271077596738991,-0.8521314244742098,0,0.0,0
0.942,0.4416913768210415,1.129241899911209,0.8765134623696109,0.7026429203033918,0.5297574400718377,0.5081907715630727,1.264567580151074,1.0354723908474992,-1.229352980470092,0.5731463505011356,-0.3533357444292232,-0.658604321390855,-0.4889546899571779,-1.096596205084869,-0.14806647301822518,-0.2822078977053318,0,0.0,0
1.042,0.49641646916516746,0.9246310481570531,0.5971359439178225,0.4701438280880561,0.4767501714506163,0.6223728546867462,1.1416660219630659,0.8146072344092504,-1.1724139006775105,0.0534928878477116,-0.8231419443645993,-1.2173397879036305,-0.6015284716465961,-0.9933333276184874,-0.3000699393567242,-1.0228384255026857,0,0.0,0
1.142,0.6276700048660081,0.8114996636201329,0.5611040499002998,0.5233643458250111,0.39150297244627047,0.9001401845802859,0.9900610960295233,0.6255929603188853,-0.9387660959931001,-0.2336372830687726,-0.9077110045714237,-1.1142498679263388,-0.7639135248192903,-0.42684884097415965,-0.6075769862110805,-1.5568155144114173,0,0.0,0
1.242,0.595863318639192,0.732863388675924,0.45852924656824234,0.7549862823652715,0.5719527750405397,0.8088969412855272,0.6656998918764773,0.7716879087068854,-0.9733805895942391,-0.43189583030424883,-1.1081610701543922,-0.526229733743337,-0.47210698430062814,-0.5574573005744041,-1.0682166957937214,-1.1468232880914169,0,0.0,0
1.342,0.5725471755393827,0.6392663796508931,0.41994269921386623,1.0645625810621342,0.8185917199322778,0.5415092673174756,1.53588101456095,1.1335489606899514,-0.994245634161943,-0.6894353134588206,-1.1999227486824786,0.18816907604976454,0.042948117398090464,-0.9760829565839492,-0.09222789463197378,-0.02295281803449616,0,0.0,0
1.442,0.5763328190469694,0.4994619783603303,0.6769391405957944,1.0099290359917823,0.6761933944575352,0.7848659591125776,1.8722297661950875,1.1804379202005535,-0.9868255087211031,-1.0575101094267276,-0.7608433896313314,-0.001902792045371754,-0.36405496191358905,-0.6384372654571238,0.6343148640481431,0.1535613280794658,0,0.0,0
1.542,1.0552647018927068,0.5106159840039489,0.8678958505059792,0.5998717320239755,0.41202298886607924,1.2195110579320436,1.4594841643178114,0.9826074413857788,-0.3674107104330896,-1.0467275852351934,-0.2556618687096329,-0.9118151721916238,-0.7729569203430808,0.16887056832958133,0.060815669279550066,-0.4872157284229869,0,0.0,0
1.642,1.7975927959580837,1.038215318620358,1.45391733811922,1.2897201557823905,0.9962742154642803,1.7757203950926495,2.0751717381084642,1.1047365394552544,1.0696927583465607,0.13599458513234208,0.7313011634259056,0.23344898853491758,0.1905499234353424,1.1037668798140299,0.7530855006618967,-0.08866345463585343,0,0.0,0
1.742,1.8917882729711941,1.3938854520349266,2.0500426524141844,2.4073698221669733,2.2837055167658993,2.184713692716196,2.5112271009055696,1.1513863210261375,1.3374413019710107,1.2833050422292667,2.157397770883204,3.131769567983324,2.5367410011884832,1.8683287165754652,1.5233921509677288,0.12342036499054723,3,0.375,0
1.842,1.5662655971131458,1.3002426499844508,1.9012340758876751,2.4167402738246047,2.7007211554552497,1.8559428724666531,1.9581311596532898,1.0715992238469603,0.778773865582307,1.0128224062113398,1.8398642707383346,3.167358906595075,3.587275548356353,1.180835954271329,0.6711342053019417,-0.12247354861836471,3,0.375,0
1.942,2.1466761607681857,1.9019554162498342,1.8774175445637094,1.5347597068405845,2.3574827055111087,1.9459787861593825,1.0634075621355992,1.1185361541958274,1.661175253112447,2.308489474693587,1.790694955831341,1.1149235071311168,2.987077382676848,1.2650526519307301,-0.6286390525975003,0.02335996536123546,4,0.5,1
2.042,2.1450229176210773,1.9366099757544633,1.8737054513965028,1.5341074286348109,2.1628521424836564,2.2249985327547694,0.7989444218727114,1.0640762410287445,1.6099940627820164,2.4337278300280745,1.7942147510871176,1.2493441296680925,2.6599317095053663,1.8742272876193375,-0.89672361530237,-0.17184281772238208,4,0.5,1
2.1420000000000003,1.318424254564155,1.1026526445638378,1.5082259935830824,1.7744746253888861,2.1041738653064463,1.6563839501774649,2.7026506299278164,0.9249864644500401,0.2684222277250118,0.45917697009519715,1.0940751036988543,1.934821663629633,2.56186645533707,0.8528581467744594,1.2388522485902214,-0.6077330717429812,1,0.125,0
2.242,1.46963287611423,1.0483211975169298,1.4478183999789707,1.6639075977507503,1.932597914907319,1.432114507024983,3.765306218309334,1.0593262109959647,0.5364350584361495,0.36070120860783267,0.962765050483681,1.6628507446898346,2.2068020673507514,0.5009125756096496,3.1707423465572973,-0.3806365572302472,2,0.25,0
2.3419999999999996,1.5648234931938327,0.9873940825004723,1.1968024219006037,1.2887774075487872,1.5298021221799627,1.7650206608428671,3.363153338772374,2.1339991994911234,0.7113786164802871,0.12256742262262618,0.37206772516768416,0.6633865520792198,1.4417422185678626,1.0885287710010902,2.599245324653278,2.5954887348607714,2,0.25,0
2.442,1.30100553499604,1.216373997320006,1.2267289087506492,1.1868776933865224,1.7111075448062325,2.0610393066357933,2.6922734349697435,2.2508758915882128,0.27176910617585515,0.5715709981755823,0.38152713580036574,0.4315958286574369,1.725943191527889,1.582850127840471,1.6512909888064715,3.337001919112146,1,0.125,0
2.542,1.3416039168687495,1.6585789408127913,1.9232430238564746,1.8084894150018453,2.5855364443596773,3.9032300930327284,4.619144918266253,2.3836795973141918,0.3746404902159524,1.9244172221502314,1.8000014187194089,1.8806684456260456,3.358198489901703,4.316301622662033,3.8235711250034945,3.6667516266581055,5,0.625,1
2.6420000000000003,1.8342372873767703,1.6818403535412523,1.8099297199926518,1.836887877019956,2.485082835611698,5.978971145787075,5.796986198091126,3.6987828500537736,1.1107498006809116,2.040410654007954,1.4891485583563377,1.990952863675903,3.105124934935456,8.325787331727723,5.947330443843781,8.01913976241269,6,0.75,1
2.742,2.3651812612636505,1.8057347112889297,1.4549841905660554,1.7566973238307364,2.104163730829907,5.990668351021663,4.749520043707201,4.103852838561329,2.0644973891349987,2.3513662762637653,0.8626757981862851,1.8010622459065178,2.5011018888307883,8.20692494344547,4.422924978154422,9.433523052116524,6,0.75,1
2.8419999999999996,2.2640566534129203,1.7636576480734896,1.7267345177855777,2.0125973905295935,2.539879239590904,4.388133429774326,4.22033455145604,3.4970564052938613,1.9463254360237865,2.1997224846728125,1.4851258567467818,2.440671924363334,3.4234491315700084,5.407996819733898,3.7962962694467364,7.447847084752013,7,0.875,1
2.942,2.004947570607106,1.3891102734059586,1.7316652098521381,1.8917601749735313,3.1666253266730036,5.266399789386026,5.909860799175954,3.0002961086558932,1.5565489166769253,1.218403901485002,1.5036892541159506,2.163857359693901,4.475724976366504,6.69080161746073,5.951148392759066,6.046875468907514,6,0.75,1
3.042,2.161488415783802,1.6458689001525446,2.15970608809321,1.9059210881932338,4.866510604294302,9.27338805118727,6.463236854737622,2.872837049365825,1.809217143623215,1.8368842321602858,2.352517049286624,2.192784106289476,7.566128107335014,13.455060450080577,6.82842994313326,5.625646242265751,7,0.875,1
3.1420000000000003,2.3856154628394846,2.2060659808273924,2.4361818520518796,2.222441455394071,5.122034701718955,9.578358180103631,6.027498414506865,3.1931694983270775,2.1208786577569394,3.318139624937877,3.019159126395495,2.8417551254489153,8.275710982276296,14.30765015570359,6.28254572380748,6.448444702288926,8,1.0,1
3.242,3.266881709017044,2.9472861357385858,3.308026304655032,3.26075943224866,4.92447664361885,6.973634471674491,5.905682845858348,4.287706987339314,3.596241949583832,5.186091263186196,4.517573573136291,5.1138154130158515,7.959638004041909,10.155291926386253,6.104883966590895,9.837780784645899,8,1.0,1
3.3419999999999996,3.8970863079739892,3.589817439033867,4.6420988969643675,4.180955514215887,5.716981909509523,6.843106153453346,6.556213566162022,5.216581904543692,4.842993512689923,6.867640195803672,7.293761955470214,7.521778689400828,9.452889636802237,9.913910504398617,6.88558051339453,12.928668427653937,8,1.0,1
3.442,2.8224859128880344,2.7912922736334878,3.7714680149216093,3.247652602609614,4.3169486159418,5.384654286485063,5.525712422360136,4.037586410156376,1.9688296306721516,3.8957094867326902,4.478571769022583,4.212489238867034,5.376049105418909,6.411634270298231,4.754789722655316,7.279327688531292,8,1.0,1
3.542,0.5808362263797203,0.9311639916264081,1.0630034494684004,0.9365579023566826,1.0989933258085711,2.0138121884770253,2.1113628860490565,1.1165513518018844,-1.155176109024277,0.005288941999457264,0.041529972170215326,-0.6305513161900244,0.1995529215443692,1.0575945761469552,0.6096525556070993,-0.6953018980404566,0,0.0,0
3.6420000000000003,0.47644829068852823,0.6466355717643414,0.8704099510186238,0.5669792938581117,0.5630269711915336,0.8739219142882673,0.8852950071586468,0.5121723834737738,-1.20492448514536,-0.6980379476930978,-0.291237564434902,-1.1007933134341419,-0.44665660148902564,-0.39503004304015327,-0.7213420974499326,-1.965568031924504,0,0.0,0
3.742,0.487949871352071,0.7362695389630723,1.2323365559914679,0.6799617844095288,0.8210610663290445,0.8990664336409104,0.6674410308237863,0.9226585575875229,-1.1892268497705207,-0.4780360497420751,0.43526298764359267,-0.6926806529027139,0.03884195230289093,-0.34805434935159707,-0.9500469514215693,-0.7852518257279836,0,0.0,0
3.8419999999999996,0.44400144152263366,0.8249278470059469,1.372153345947129,0.8171168069258092,0.9660926148283475,0.8624072929526618,0.7461404355702478,1.0016828244706546,-1.2765058777118583,-0.19844854481233146,0.8051849282252441,-0.4156894443985698,0.3595222940070564,-0.42215678384030975,-0.8337084739641355,-0.45136443878621985,0,0.0,0
3.942,0.6568931445947436,0.7301437771623078,1.081726623637756,0.9080041563800462,1.1617842763355841,0.932429152946614,0.9765035182822831,0.6439831785160102,-0.8803933757242646,-0.44864325453435566,0.14678459573144445,-0.1877415783942698,0.7122688267264647,-0.32457859324160754,-0.5653072149354127,-1.6276364830950931,0,0.0,0
4.042,0.6317982512170627,0.7102164490950287,0.7547559678463067,0.6573212571591927,1.1440043515755085,0.9198834939721564,1.035789431224166,0.3941835265836551,-0.919412978384847,-0.49217771447545183,-0.5051007854117678,-0.8377448536754653,0.6557714826772837,-0.35859656868880707,-0.5002158628413106,-2.29661163890676,0,0.0,0
4.1419999999999995,0.5070130798084406,0.8287980045230273,0.5350734391638127,0.38699226447981844,0.7148854668672059,0.7374479890717445,0.6543825717353504,0.4297146755322584,-1.1221689536401163,-0.1926284103525547,-0.9925842781283505,-1.3947864741733205,-0.2401445472332774,-0.6356279463336912,-1.072624953526119,-2.1929528122830373,0,0.0,0
4.242,0.7241380564551614,0.9942608004584875,0.5707919037836515,0.5156473595653294,0.515832459664695,0.706961330510224,0.6878646775589649,0.4842257164555586,-0.7606277483614197,0.24861493926955514,-0.9390837161715714,-1.1453073777595293,-0.5523979872808236,-0.6861507345820392,-1.0945433604151653,-2.062396232871877,0,0.0,0
4.3420000000000005,0.8704301204885626,1.1487488261044563,0.6510539125249366,0.5310966802491365,0.8341024968104018,1.1615807105903915,2.3953813306170746,1.4346458407639164,-0.4681499810095325,0.6508748615322426,-0.7382330820578394,-1.1068070767074765,0.03638509440187143,-0.06942579972606644,0.860734045088224,0.23313465481746776,0,0.0,0
4.442,1.211526355702709,1.3243492215575297,0.7289885786951297,0.8253885382570584,1.2334970963014722,1.42705119029319,2.8181782694904975,1.7414214217826054,0.05133082615950296,1.1082544122671865,-0.6818071472215583,-0.7186711088929696,0.773971285113539,0.5287215610044209,1.8557207931409188,1.7309278877829075,2,0.25,0
4.542,1.6689330524172492,1.4002594575624496,1.3276818805466923,1.9159378210302318,2.1147516403776265,1.4862903254955218,2.533486952403284,1.1905885891660324,0.9040178147823648,1.3017207521031058,0.4812680742344838,1.8016566925297284,2.3353881544197757,0.6609114825991269,1.5108619230118427,-0.14458518616380048,2,0.25,0
4.6419999999999995,1.4566759358436618,1.3223449374575993,1.6605076081755779,2.050711633937532,2.1788670815716045,1.9334177448583405,2.77372704438683,1.3630951342504825,0.4202966444475765,1.0892224507650803,1.4025276207428816,2.4218148338159886,2.581730760313662,1.407572746909467,1.8224916520849561,0.44333898944512085,2,0.25,0
4.742,1.1459500466201602,1.3563103547673998,1.7155853959194896,1.4794413554722172,1.4086580059262512,2.107168120385722,2.5679629989095987,1.854877249290523,-0.06907574001641167,1.1665928960970917,1.4975425649970096,1.1153242551766345,1.1573980943216018,1.7043783533744612,1.5477120070925632,2.3244922510273045,1,0.125,0
4.8420000000000005,1.36590725017946,1.530488272948839,1.8780837947532434,1.5829139958340601,1.5398306645502227,2.7006292899408115,2.332493559365991,2.0057374245504085,0.3166522889533711,1.5958115801545678,1.7837445571927095,1.2624214210458158,1.3576023509632327,2.5803420345249877,1.2896375598305663,2.7403706920166124,3,0.375,0
4.942,1.2675620145554853,1.2268364384979895,1.4586942782291041,1.2634603218319118,1.4382004669354023,2.489768527058396,2.7914036586924067,1.6818080415046537,0.15815471084113425,0.5563235708458876,0.5576288445759461,0.2350007525350432,1.0937908915141443,2.035228123681787,1.8775701463568015,1.5734487445731662,3,0.375,0
5.042,1.9933133060704502,1.3958077131693938,1.1884711353672377,1.4271321114196966,2.1691296236267585,2.858052590464222,3.830540426880311,1.3418420714245318,1.2393991962164146,0.8352372533724054,0.13965334222663672,0.5354342101012929,2.0520728075185204,2.1395074061939092,3.2509110233568324,0.6886927255451886,4,0.5,1
5.1419999999999995,2.444491224800526,1.9044619521138721,1.6068617600311799,2.1914114438182257,4.18968804870888,8.175012172779397,4.6739649183255825,2.1247080593576975,2.2868145252078875,2.5132143041418677,1.2238367519463125,2.7810433308369134,6.16477217980619,10.376807343044243,4.397909529811674,2.941304040783904,7,0.875,1
5.242,2.015241023205052,1.5685168686701314,1.4036039651930619,1.8619778301721845,3.9274584608029213,8.493305856136852,4.217309407041252,2.4140499600429433,1.5227772056228692,1.5572571898830998,0.794412115604541,1.7929536305256377,5.445750535206544,11.641789289935437,3.6127295227760405,4.111404700910714,6,0.75,1
5.3420000000000005,2.0169696221474327,1.5059054339695936,1.46832357062849,1.9026778341544528,3.104867277582183,6.50243713857626,6.920887039637435,2.8507397608749243,1.5107590998606324,1.4160123051898663,0.8718509187046752,1.6671552045772047,3.989703143778905,8.554702018703024,6.375302020042095,5.189422934814498,6,0.75,1
5.442,2.345597259839245,1.8737298610055961,1.9631683572158185,2.7662080952732007,4.19448223168271,8.097663966149044,9.006421324787192,3.4105187120271463,2.0676552536720205,2.4054854158235117,1.8845767168453817,3.8198831038121113,6.120774520445105,11.400302889098537,9.866521109613464,6.878526468762677,8,1.0,1
5.542,1.8060161691319392,1.5006515520795292,1.6371637577129095,2.203391582442877,3.3606563124382833,6.228410071679786,6.3689921869025214,2.5374099655837377,0.8493699654657997,1.2620014007936615,0.9953190602737543,1.9361332973673382,4.080412825051421,7.12424627181133,4.931090842778152,3.2660494639527706,5,0.625,1
5.6419999999999995,0.8063568025365413,0.7106175973998073,0.8648440697812644,0.7266336221507624,1.1790060915248057,1.8399899823668335,1.4019928733649434,0.8037092908565636,-0.5883195975064941,-0.6694799450515811,-0.2682543754848307,-0.5870675343745954,0.5882085996640392,0.9074503454045925,-0.3085469479961169,-1.18303390828898,0,0.0,0
5.742,0.5613808582576184,0.7969860931714206,0.8975482188514671,1.0396517565720307,0.657253620532654,0.8414561551461975,0.7179643130695851,0.4897064907300899,-1.0630965610903615,-0.550769230765959,-0.1967920744374568,0.07531423581253532,-0.26488904724182916,-0.5023622728477934,-0.8785235373604753,-2.017600733172092,0,0.0,0
5.8420000000000005,0.452435177606216,1.0090552114135818,0.7419446574237887,0.9456100436897134,0.7715187476120402,0.7133296091407287,0.819010580412177,0.7267170020733612,-1.255600469234736,0.21553787022890786,-0.588895133792912,-0.34307557508565123,-0.04968226213426293,-0.6974810750495997,-0.7438866915356024,-1.3366752463426324,0,0.0,0
5.942,0.6942579581567541,0.7736886780543862,0.5061816773766742,0.3572200513586401,0.9207840189258437,0.6569173470034753,0.6275863552599499,0.6672643730646328,-0.8440007168418611,-0.4239845526431882,-1.0180226298755775,-1.505472306689423,0.22832144258555204,-0.7896500354009782,-1.0783549171992939,-1.6831916078838731,0,0.0,0
6.042,0.6541066799282665,0.4508474928677027,0.4410046599646633,0.3434153992502855,0.7380759372120714,0.5425632378948153,0.4748777974968738,0.3367933542626973,-0.9149029050510638,-1.2087224535444103,-1.1596012318161921,-1.487969372554135,-0.22377000361378077,-0.9823513152330821,-1.2473419843152942,-2.536138871859737,0,0.0,0
6.1419999999999995,0.5346272608391831,0.4749609427570781,0.4599905105107866,0.5259141533232582,0.5698501601759857,0.568880069872321,0.6113298517214749,0.4517988488127537,-1.088154770399115,-1.1559820638009897,-1.141289483682137,-1.092307901493977,-0.4528750228311805,-0.9628945398211363,-1.0365935275980507,-2.152784546584184,0,0.0,0
6.242,0.818173748821284,0.515838117766129,0.902163580052111,0.9101532012205104,0.6561270374859519,0.800142858312698,0.5249351057971247,0.6384459300796175,-0.5889440235811118,-1.0245933379533374,-0.32432318497471385,-0.2274791584990965,-0.2446345483138625,-0.5596102178261664,-1.1507557017537633,-1.5400888840010427,0,0.0,0
6.3420000000000005,0.8173919285935135,0.4747438515518641,1.131810205054066,0.9250846528878996,0.6101313827444884,0.7800307782509575,0.4503704032744601,0.6731315906468484,-0.6030819519752636,-1.1313501543926434,0.28111704127136566,-0.2038601016575608,-0.3323443376525277,-0.6017152491508035,-1.2281723337434325,-1.4213965247492992,0,0.0,0
6.442,0.8358114709848898,0.5422211297573876,0.8972355419182494,0.5766953726737681,0.9761563847965194,0.7086571812192176,0.526579885427569,0.6922566878260512,-0.6492323484452311,-0.9534488146888214,-0.29781997877308786,-0.9914345885909783,0.21778683029068935,-0.7922990595318237,-1.12707785123067,-1.4310265679092908,0,0.0,0
6.542,1.5063928859158648,0.7121155622077089,0.5117631715836617,0.5367865638965246,1.7160779315016401,1.4016278312071961,0.9223991352037295,1.1355336502853586,0.462980810552851,-0.523940976830375,-1.0740154798910901,-1.0347617865796988,1.6484846701351732,0.272884417801585,-0.6799231462980698,-0.131347341269511,0,0.0,0
6.6419999999999995,1.4126998819198304,0.8067970368779519,0.5169847335698461,0.5969362042688745,1.6334684465318474,1.4079750230909156,1.0883224928235802,1.2238821108852855,0.2322231700054443,-0.24705982367951634,-1.028053907602558,-0.875888766022696,1.4553232359939403,0.3466652571023395,-0.388111533008286,0.3051000970170534,0,0.0,0
6.742,0.7905133616306526,0.9141446509362467,0.8604456684950054,0.7518562942897257,1.1869011070318498,0.812753963790965,1.1508464668726683,0.9392154213619857,-0.6243463422790756,0.019679398470432624,-0.34313883083979657,-0.5538467627491382,0.7526996425381051,-0.5627384595605686,-0.35669698753551166,-0.5625257951811268,0,0.0,0
6.8420000000000005,0.8538494071084975,0.9406695559635887,1.104749820536054,0.9525644291863066,1.3055517665440246,1.266209717881395,2.0411997359797764,0.9023504536274268,-0.4869404466230569,0.09309757617279199,0.16697112174490458,-0.05058724740702888,0.9941722558051949,0.14052477887383424,0.7188206131635659,-0.6749320871430985,0,0.0,0
6.942,0.769148302787528,0.7276582105844406,1.0363419130145617,1.3461180845591383,1.063209039404725,1.5744617566251433,2.360587560956935,1.0230380757553719,-0.637193140629079,-0.49968760192856154,0.0035560457521867706,0.8244913704555262,0.4708771042224611,0.8295717868923168,1.3232805235811764,-0.3051803573223034,0,0.0,0
7.042,1.067448955742936,0.7556071933283435,0.8562091707480181,1.401141515146311,1.0025927196686364,1.5552367595584462,2.5193575916977555,1.482119743324482,-0.19586860423753683,-0.4250761374622578,-0.3461659857528253,0.9842549380735217,0.3887314776818819,0.7984306162844041,1.5173619988914901,1.0435123499427033,0,0.0,0
7.1419999999999995,1.3005123690296816,0.7797704373792658,0.7601653750480706,1.037017938173193,1.1544665584346898,1.4445193346410683,2.613952699414273,1.748378175597412,0.29233508655037527,-0.3367262135335442,-0.5694001051468431,0.14571256924895468,0.7156288282101017,0.5783657840912969,1.6655835069172933,2.0267725706998485,1,0.125,0
7.242,1.561301250236616,0.9317392896220712,1.2386069675268225,1.1108863993044311,1.2225096964663913,1.0642899214721684,2.458233492122935,1.795446184364673,0.7019407614403921,-0.07814325305373733,0.29250560026229905,0.287875487265683,0.8493545191626115,-0.18365702891825045,1.4359314731055606,2.180352510502611,1,0.125,0
7.3420000000000005,2.3232965735848405,1.4913782987412034,1.5701867747868044,1.4306496107191917,1.7827685996714253,3.40688062716489,3.8952686444211504,2.0874104159851274,2.0075305145922373,1.37337309519081,1.2111120385634289,1.0613353503419325,1.8014260273354572,2.5686757112907763,3.1335953950567133,3.0866421078075694,5,0.625,1
7.442,2.374583826286948,1.5359043653799604,1.3362990237348773,1.4889398452232132,2.390874714223523,5.575177817045853,4.969509318694538,2.08655699917801,2.149522227917284,1.5834282491040788,0.6892300952571315,1.2279210778083898,3.075951023564851,7.419357372701329,4.838892062600398,3.0598261132905398,5,0.625,1
7.542,1.9864468983014814,1.417469215993823,1.262077795481551,1.7545928246583502,2.7566255474018297,6.08414314150591,5.626029490550402,2.680368248921968,1.4925721877823397,1.3414900778664323,0.5410360682488646,1.7925248372410436,3.8216727229429837,8.61593129465652,5.7006440313920965,4.654086926647631,5,0.625,1
7.6419999999999995,2.278260549721135,1.4936628501698426,1.46089508495864,1.9157586169430092,2.680425484863838,5.109416221157769,5.172214706571183,2.9937902337271223,1.9980465980105933,1.5624803917627759,0.973174354709454,2.221962042468667,3.636823857129592,6.737755941050942,4.948327256182579,5.884077163003825,6,0.75,1
7.742,2.0219707449204214,1.4285124559003821,1.4559138505532272,1.6269704840222436,2.460442583141272,4.087404851452871,3.685851281929666,2.0842456434701835,1.4359026856651107,1.3276466474686146,0.952654261036448,1.521801008867959,3.232365379450152,5.104944700740166,3.0746727241646172,2.6378125473896263,5,0.625,1
7.8420000000000005,1.2365897950222298,1.2058902862469123,1.0653359178469004,1.2685261182275842,1.9080814774917298,3.1256466223914847,2.605556857525175,1.0948872549844844,0.15003714175935362,0.6626221167898737,-0.035824026553057164,0.6673653775022126,1.8498686628369634,3.06258554571982,1.385827276133247,-0.17329625704661167,2,0.25,0
7.942,0.9089272216389392,0.9280777794258808,0.6052225101189942,1.2026024919597678,0.7944599829323271,1.4170777865753914,1.175137978016582,0.7032029694259359,-0.4203957386892248,0.004260190347976011,-0.8071227239326288,0.5471549106735366,-0.14490164066477926,0.030631424925145655,-0.3995336682249147,-1.4256768153940524,0,0.0,0
8.042,0.6454466018464319,0.6757025060470891,0.679060091263032,1.2676639605879367,0.5153468199721954,0.45149465206467254,0.5795081670833231,0.5932418599617735,-0.8884177311395944,-0.9036783519484436,-0.6474152008767389,0.683636514368154,-0.547862376933486,-1.13159256866579,-1.076242482118277,-1.7432468341992742,0,0.0,0
8.142,0.5982973308719792,0.37341042485396997,0.7117978990770719,0.98643718079439,0.7266684729001468,0.3956757881815935,0.35084017333859285,0.7178793458902752,-0.949447652848819,-1.439844240997099,-0.5763680442140277,-0.06409423694889194,-0.1443520582534645,-1.224727653284536,-1.3829068483677538,-1.309955599399734,0,0.0,0
8.242,0.5556485636754391,0.517516923584474,0.7345587805331053,0.9088036810635669,0.8135016766296183,0.5027295416091996,0.6495203300439987,0.6536160510240623,-1.0473012515427076,-1.0033761905102883,-0.5401741015921943,-0.18799814705010068,0.05897088921608502,-1.0656557919639549,-1.10166514685114,-1.4933691485713547,0,0.0,0
8.341999999999999,0.5463032659619095,0.6120444223873266,0.8531958530681808,0.8676187119386444,0.7752142093530593,0.6179500833108175,1.1784210948107903,0.4556143646539922,-1.0737581158245362,-0.7565264914666282,-0.29286171178707854,-0.30755232254724496,-0.019321284013192008,-0.8437955065331344,-0.3130590416187837,-2.1458168570412997,0,0.0,0
8.442,0.7641359418260842,0.780144855518863,0.7671442864816848,0.6112444806647258,0.6189012568378078,0.5882030268911415,1.2403184982027282,0.430391676741138,-0.6723892123748736,-0.33861869664391897,-0.5106510599367681,-0.8459786496805981,-0.37428938570044834,-0.8925155671298631,-0.20145474578570913,-2.218624517260602,0,0.0,0
8.542,0.6674466542411498,0.9048410263336262,0.6382661801294408,0.7962916772831096,0.4454033090083132,0.42551050982542066,0.8463885885120633,0.5629176539879609,-0.91611442652787,-0.015635134069139366,-0.7450852294763084,-0.45516258851180424,-0.6660043732051915,-1.2182066697036895,-0.7542459396134292,-1.7627117020781238,0,0.0,0
8.642,0.3176122866797581,0.7203329412876411,0.6382216050335925,0.7896985063442088,0.5574976315440008,0.3133500154729788,0.7963039325904555,0.8837978804627691,-1.468629386386373,-0.6219426264721292,-0.7381078323451249,-0.5074723741718252,-0.45400563917535797,-1.3746167971129146,-0.8208054079907644,-0.9498692821751128,0,0.0,0
8.742,0.3058522501821472,0.7220513931751386,0.7250231632810397,0.6106725688041801,0.8021632673535685,0.5335139902253654,1.796714505327383,1.5183197489046438,-1.4801189960908194,-0.597676046701947,-0.600033184589149,-0.8770664360514997,-0.006387096263364473,-1.0260225830212604,0.3467348473358854,1.014380238191388,0,0.0,0
8.841999999999999,0.5066702691805112,0.7853030218799447,0.9663622385450775,0.6060581059809393,0.9732027899545793,1.0410465774188042,2.392573884574909,1.5600204642835396,-1.145311668479,-0.352564659867173,-0.07267461910012336,-0.861572745000313,0.3214020129835414,-0.21179111765681183,1.3689525699381744,1.3058414807612455,1,0.125,0
8.942,0.751896915546048,0.5666863834305974,1.302942449967132,0.5283548744143591,0.8867094899071266,1.3401822868798938,2.5655036337366206,1.4470857809418167,-0.6882021392646848,-0.880764438796392,0.616053538183848,-1.0484384301710374,0.10958055606755994,0.3952444463740937,1.6159891297874123,1.0060653257375134,0,0.0,0
9.042,0.9027408834662614,0.8982056824195219,1.6875049836034732,1.0720645029469114,1.7288579691772747,1.4513662834770755,2.4703967777715468,2.246337669215922,-0.4276867888553452,-0.2029695345596009,1.437760681112819,-0.10162464528188202,1.3657021887417105,0.5182668765635368,1.472761662015537,3.37166842315877,1,0.125,0
9.142,1.3343089592170576,1.3197799831917658,1.7866343900026975,1.9973281081305718,2.9970073745019623,4.485912476004146,1.8647327189366014,3.090880159595349,0.25984213675133727,1.0277558764031884,1.6572467787987608,2.214768689912932,4.109037920652973,4.427740036664452,0.5920283562845094,6.198906650948112,4,0.5,1
9.242,1.6346523398758395,1.929496498283308,1.721454728061652,2.244809379818942,2.9872118359616042,5.623058775743918,1.5485234559550562,3.152226669383102,0.8982252017384488,2.575225005247552,1.5191512362528106,2.9158703060762328,3.8519988653236235,7.0319343045714975,0.1460311562378452,6.474976768066381,5,0.625,1
9.341999999999999,1.429515935380849,1.7122984164197397,1.4358560474368232,1.7371203211387611,1.645572039929087,3.6882936184609063,4.730718740338167,3.202847048023764,0.47048144547847875,1.4810887185342443,0.8511627140230663,1.6210502278990717,0.7391294558354828,3.041501529834253,3.4033742642502096,6.599387337337246,4,0.5,1
9.442,1.4496737936990851,0.8065770650845501,1.2403188046942517,1.818062664568432,1.6872745165934313,2.732284196049425,6.600229200508942,3.643533556616813,0.4360758474703273,-0.5158188112922673,0.500776864758134,1.8784750675345179,0.869714978481797,2.25671511691696,6.78665228196717,8.050703522526879,3,0.375,0
9.542,1.9810534290022153,1.5622068822365194,1.615721405269641,2.4273736185694665,3.5416920556833578,5.067664595264119,5.795116366098944,3.4152105373197164,1.4147764756348593,1.3340942556172695,1.2844916536265076,3.4344825680543662,4.85546600485515,6.5158867558821685,5.754177579300611,7.296726706638184,5,0.625,1
9.642,2.2136361277073617,1.8515388006499602,1.7226248728817122,2.3383874221673406,3.840812230262337,6.611185216465873,4.81861539716791,3.3004129490278213,1.9332954845372683,2.4613944601767295,1.5356944929867473,3.1975489316689654,5.822029450657806,9.462503737089168,4.6535286496920865,6.9372713045805465,7,0.875,1
9.742,2.4819687607442327,1.8547214582635643,1.8266000252614834,2.2095976761290683,3.1724265965941,5.907307277866669,4.7935963946431235,3.685384573607362,2.277179897192496,2.280600397726059,1.6378438017646686,2.9039327352430258,4.506505034065087,8.008316018773806,4.6108189461684175,7.981476853244833,7,0.875,1
9.841999999999999,3.9466929212166764,3.4721216447337158,3.3261589098804216,3.1570192173179157,4.690551184743511,6.222316604906847,5.290745302468234,4.905115444910531,4.658176659219944,5.9965897860367425,4.384193764336573,5.0092246701356995,7.110813350508574,8.50997503692587,5.225348909261063,11.58582448993916,8,1.0,1
9.942,3.7755406279614085,3.5931171976159395,3.5493855982828757,3.114119013662039,4.562032799890372,6.566154597956039,5.28823384249566,4.869604000457542,4.2238242197429345,6.6128746555262286,5.143117548246709,4.892115287663803,6.78274954896533,9.324830325587865,5.093799091665036,11.555969227202976,8,1.0,1
10.042,2.112215369511103,1.9645067497511441,2.5960815201326835,2.1708466926043783,2.690215538346608,5.040895339010795,3.5411299175612796,3.1320230220607663,1.6597703180911352,2.5359164853523266,3.341205499469106,2.8455728555325956,3.649804501256129,6.79456552219618,2.382578374162743,6.119212570567312,8,1.0,1
10.142,2.400905055051195,1.5700344686213477,2.3468325080950816,2.2457294298400137,3.2549262301077957,6.176745136119756,4.024576662651613,2.714408608690417,2.192877207319605,1.6625822463632787,2.838307183627787,3.0144208379040265,4.67310399664117,8.504605484403852,2.9725891624188865,5.0579728327365,7,0.875,1
10.242,2.3276242032586194,1.8232668303482933,1.7974894645634132,2.1877370735291963,3.4138603936613334,6.081289048918231,4.517408454166985,2.5111609134762936,1.8960402002939916,2.235415314790259,1.4926718998552497,2.6695876378829992,4.858865518613909,8.050415090648963,3.9114908094043606,4.051672338866353,7,0.875,1
10.341999999999999,1.3147383459346835,1.4457433660753178,1.0234490363229993,1.4067556412585784,2.1558269821161034,3.4078949458116385,2.617020094107885,1.4690824237952094,-0.18943044802447445,1.0304331713707255,-0.2241206651887885,0.46461733237129643,1.7967577124897638,3.4151349613689006,1.2061886226343346,0.5557334045414108,2,0.25,0
10.442,0.40529745582142807,0.7041065265884081,0.6488758876634863,0.9819791585062909,0.6895316253356881,1.6782479595815132,1.2796546500827604,0.8326574921772185,-1.2881710533348658,-0.527363152697295,-0.7327517356494977,-0.11854512359638414,-0.25237374002286433,0.8681873721132607,-0.1162682046229715,-0.9201470808981267,0,0.0,0
10.542,0.5472364539147042,0.7215361662020726,0.7712027499412327,1.1863581231219202,1.2603571591371883,1.01818053959281,1.039258099743344,0.8655601054183303,-1.071792507793374,-0.4829635251040371,-0.4510556055671028,0.523953746710185,0.7101077838461396,-0.23494391535706352,-0.48766088788807627,-0.7932707578844305,0,0.0,0
10.642,0.637962616118743,0.770213864172607,0.6933487942435905,0.9117082279196408,1.412167282540695,0.8388945372261619,0.7112921581121016,0.8143170914609014,-0.8964009312516961,-0.3340546120534487,-0.6308817828438741,-0.21151221553485086,1.095960654563332,-0.4883996832990641,-0.8878471866839183,-0.9816839064444236,0,0.0,0
10.742,0.5909255535118182,0.6267846629062558,0.532756203923013,0.7721271762360175,0.912892918647094,0.6740066942211475,0.7803761452101369,0.6142319557830773,-0.9777196183761389,-0.7338100855171938,-0.9603575033774993,-0.5008417844992639,0.08400253130957881,-0.8415127595126917,-0.795903645446286,-1.6530606765503824,0,0.0,0
10.841999999999999,0.6440281780350392,0.5614405637745787,0.4336924444776292,0.8550104852819294,0.6651736532874241,0.31256900914471636,0.687987759453139,0.5125226435129614,-0.8910646574613272,-0.9102620648440146,-1.160597548802442,-0.2954253565806965,-0.25590380292305986,-1.3964974279070679,-0.968123829272602,-1.923766266445682,0,0.0,0
10.942,0.5529719916751245,0.6697131606920291,0.44030980729817953,0.6572819460040813,0.7967377716688572,0.23650474009930283,0.6144972486916438,0.49314516193016844,-1.099353511866441,-0.6368117056572197,-1.147787552299281,-0.8305733993151918,0.01250532971781157,-1.5046015837053335,-1.0634383848560156,-1.992279811098257,0,0.0,0
11.042,0.2711794872993226,0.6142717951816502,0.5086674559867299,0.34305269755432244,0.8461228926216655,0.6137905806175079,0.8159178483116842,0.5107794159532701,-1.5394970943821975,-0.7889838178148024,-1.003617138297678,-1.5350963797923347,0.120625711411858,-0.9773623108443037,-0.7526281398952728,-1.940478202812161,0,0.0,0
11.142,0.46290879309409366,0.5352210526511332,0.6603485651369044,0.2991806504785875,0.811437292920378,0.6688047001874106,0.9168906026411754,0.5999336963595736,-1.2910146975196686,-0.9659953037966128,-0.7059452568874081,-1.63241772082144,0.0431048801826452,-0.8080089195555107,-0.5989776534187818,-1.6492377425190061,0,0.0,0
11.242,0.5832731274146052,0.8710372108186414,0.9540933106357468,0.4556271006828629,0.6920457351144985,0.45021549713592535,0.9477447012657217,0.8480860925076296,-0.9930916926698042,-0.17058690904526258,-0.0999304211751049,-1.2493952107328146,-0.21862406240759857,-1.1472103429131661,-0.5571658214039675,-0.9385195516628976,0,0.0,0
11.341999999999999,0.49025459568189256,1.119232215727305,1.0822978832635943,0.5648998426965244,1.1951530925740894,0.8645264517855912,0.8632940154952456,0.8474252538079603,-1.1495028626681127,0.579896321623257,0.2007758171483649,-0.9520515355311797,0.5526082249195234,-0.5524096720564919,-0.6823544764601467,-0.9358164563531133,0,0.0,0
11.442,0.7817641340432455,1.398029632680602,1.5322890017828052,0.6636006992545755,1.5045513074836037,1.7371702579119346,1.8377908153402909,1.097673165423364,-0.7407917600333669,1.2199462330652373,0.9829198521710877,-0.7643998710649998,1.3854156153622186,0.8252289303143836,0.23069828048036772,-0.5421798534663183,0,0.0,0
11.542,1.796351244804517,1.6078787016522225,1.8021638563854505,0.9140836349022353,1.487708803976253,3.9081380302715005,6.164011332381557,4.142566825301067,0.91697572079883,1.7537613814805961,1.6201034226155528,-0.20951908180630893,1.3594685009420855,4.233456947837223,5.228440717545679,7.381976139517972,3,0.375,0
11.642,2.124678844539074,1.2815715290449587,1.456008082150118,1.0753135368000444,1.4541123456312517,4.518345612639854,7.871351578778199,4.890451961637024,1.678212678806777,0.7880730872239033,0.8749507263117666,0.21424101345259064,1.2317817993530575,5.849347397934054,8.605598814577679,11.493064460584517,4,0.5,1
11.742,1.620491275911741,0.9480526423015421,1.5566384709987904,1.5069238506959244,2.0074745030361063,3.8619096105777224,6.4641476052428555,3.1251318783425277,0.7605652267235581,0.1076039804674275,1.0973596772784966,1.1341263179240102,2.1655850295724908,4.794991836332603,6.720005336128509,5.770168966582747,4,0.5,1
11.841999999999999,1.8843465621362998,1.4173023566399137,1.8177435327226588,1.7742002508973418,3.0143973054393194,5.90868298681071,7.662204958801144,2.946471043956314,1.1771866317563358,1.2270254338943003,1.7429715698191852,1.9117187683033188,4.217822849090996,7.7304229639738935,8.084151821866246,5.358956655942374,4,0.5,1
11.942,2.220810014521123,1.5528043747332463,1.732362676447302,1.6926226428356,3.5708672368705403,7.876327676390917,8.883672880799185,3.690383533495411,1.8277866590104286,1.5600450643127233,1.5667180284017734,1.703361012833008,5.240601841744506,11.418776706012412,9.990377565080045,7.981702322210941,5,0.625,1
12.042,1.6931614573191294,1.3363301550334366,1.914013917877366,1.8024793187135155,3.354212306016384,6.9677753555579764,6.396365433843327,2.9988109025942524,0.7552990404010899,0.9901249764142944,1.9252948670446446,1.9525599336747426,4.740563235871052,9.595625309576128,5.992846643942622,5.491852675565618,5,0.625,1
12.142,1.7649454780161018,1.5778999848194493,1.8030366411645833,1.873931582772964,3.842606628413048,7.541637944330983,4.858015559156779,2.3464367257276586,0.9554383345761206,1.675531054067756,1.6029328694357947,2.145741776536886,5.707139974676996,10.587654041886555,4.411447973775976,3.878667260360263,5,0.625,1
12.242,2.3489661153017463,1.7024143915789933,1.456837034780607,1.9851389918884477,4.40456034888194,9.324391969107408,6.088803064633934,2.6427539628114114,2.171048251073793,2.054007663032078,0.7724266286560653,2.3436576197269288,7.059686259172847,14.251735721815953,6.3225546214183685,4.886026080674796,7,0.875,1
12.341999999999999,2.647278076618523,2.121347953193112,2.4363388638892536,2.9695139530024712,4.371021734861625,8.380431114390497,5.391747981218756,2.6631459668210797,2.679898257124613,2.9919769859803536,2.528520937204874,4.476430520024387,6.979136998855243,12.414500935148762,5.289989513521086,4.910980548928533,8,1.0,1
12.442,2.149140652630267,1.952605674894156,2.3902964684258254,2.953305383872685,3.5375738628845705,5.464916323013532,3.803535840865038,2.0808027636278674,1.462465596235044,2.2986441364919066,2.5191062129075332,4.400063252958831,4.963878751599545,6.578584320576181,3.1501207143960297,2.588292180954094,8,1.0,1
12.542,0.9822944634528601,0.9662821741380401,1.175155502452002,1.8379832665691267,1.8670479168322156,2.2423211573703004,2.479921070326764,1.0314068182805414,-0.3461353729086763,0.114136687918585,0.3684172454881058,1.9162913100841703,1.9603337148294666,1.7799750810350712,1.3150040360088098,-0.4092075709070439,2,0.25,0
12.642,0.8868798573371504,1.0258342777205598,1.3713519090505275,1.8863625707148015,1.528933207809265,1.392980681964048,1.367828292034998,0.6299737786459924,-0.44271604773391804,0.29828339405281323,0.672270711107671,2.1017436898071113,1.3803721032847558,0.45450007090806227,-0.04468175167287115,-1.622121426976604,1,0.125,0
12.742,0.9334270025970294,1.243431940104592,2.288551849592591,2.0687262566147973,1.7350575343539223,1.2594021657761623,1.0767077501011537,0.3673031554017014,-0.3530704361201036,0.8951880122620042,2.494023785100172,2.6046424036454185,1.7880899702943118,0.26514681964202114,-0.3934638925764243,-2.4714188401479182,2,0.25,0
12.841999999999999,0.6486178084007902,1.1139910721644282,2.9867570175881886,2.6186633605337093,1.9005762225934302,1.7205651710658216,1.452957248916451,0.4732648461134791,-0.9846272731572308,0.49382666402236747,4.156448803977451,3.588421019991146,2.1130340442612643,1.0231668962022358,0.06411028040009539,-2.237366108585145,3,0.375,0
12.942,0.2772408717582769,0.9467856574626801,2.790234420829401,3.461574777897559,2.033975626831893,1.8249674585153577,1.6911945003231539,0.7219444138340032,-1.5359474476503896,0.10105260504827018,3.6281609762375204,5.645087923689266,2.3348065913147877,1.1420630850130604,0.3961822214870993,-1.331508652925601,3,0.375,0
13.042,0.3210195540917204,1.1151110255254952,1.750945877190667,2.735777058956234,1.6675570216437268,1.2231811593739987,1.2454912719582052,0.6582099295708802,-1.457733444544211,0.541530864526761,1.1258211457404916,3.0617094842278525,1.5137138472320388,-0.12546904312763188,-0.3546110161769823,-1.5342136834047562,1,0.125,0
13.142,0.45146232101006684,0.8827622421182554,0.8117196955785597,0.8544618086811284,1.0644293460462768,0.978616083612018,0.5613405235334856,0.9143662403620415,-1.2172202741884193,-0.363773711878015,-0.3803595702941554,-0.41389675955160393,0.5351482259159382,-0.3553340309062352,-1.0842725814690142,-0.94354653718393,0,0.0,0
13.242,0.6038617457320872,0.3906320741955754,1.1435662013942351,0.7313529169896946,0.8635614648247816,0.9413777963883239,0.5076772109869341,1.264911331261039,-0.9425778693732696,-1.3947640156451335,0.23995399795197278,-0.5819906167908528,0.10202061616737323,-0.4613075748179411,-1.1486691442253567,0.38089667725908216,0,0.0,0
13.341999999999999,0.6352697512874002,0.558098794280055,1.319909802013921,0.7504479226065106,0.5982542899344133,0.5669772501890775,0.5569470973459537,1.25793037539708,-0.8791507951136609,-0.9669408085976332,0.6736350216294711,-0.5623503915549843,-0.3627425337540299,-1.0080570530456945,-1.0849351829123022,0.32593466208989,0,0.0,0
13.442,0.9891451793233829,1.4619113390913052,1.9660959867812986,1.5905856084005372,1.2867475397027206,1.32234536768673,1.1610438965856054,1.5145953294259271,-0.43964729711813116,0.9690444360288669,1.627023351845097,1.0690662054754652,0.5788326795332086,0.12046871132981904,-0.48675340507283327,1.1008084704936665,1,0.125,0
13.542,1.7718217906136138,2.2096421093271537,2.6440739839332688,1.9608610421204076,1.8659812847085409,1.7700029485634234,3.05065746818558,1.8311844776571797,0.9702179429934423,3.272362229939398,3.114411439689795,2.1820044077406355,1.8720708496711491,1.1215080666105175,1.809087977666648,2.2941041674285207,6,0.75,1
13.642,2.023203071248646,2.3709717471449205,2.767253523788863,1.6880420451566591,1.601339972526428,1.6383988938202825,3.829675247009308,2.224348580759479,1.5941486351121337,3.8242217675460237,3.4762100339861455,1.5707163020417365,1.2745976359814022,0.9000809057951722,3.3041101851572043,3.4381358671673232,5,0.625,1
13.742,2.051201917188293,2.5615594584566446,3.3015524935341993,1.887390761061719,1.9634424742017755,1.3883156200632152,3.1332847827073413,2.018053887949586,1.6359273350790684,4.309525350116984,4.619577742367298,2.1117832072049243,1.9352691766791774,0.4549890029542375,2.2894769373558255,2.5717035056644617,7,0.875,1
13.841999999999999,1.8995141819216304,2.3050940662949566,2.897735778455523,1.7040122877792603,2.1814417342836094,1.894996780222648,2.176336669226404,1.6041309477731522,1.3210065217705593,3.4934434773659726,3.466625495573285,1.4902856159099636,2.6268767507704065,1.2148673676300399,0.992666989836828,1.4689415344812906,4,0.5,1
13.942,1.6342263089261408,1.675522001725454,2.1254477531275406,1.2191874481492497,1.5336689766582388,2.662463062374221,2.452413506696965,2.2086634929624607,0.9019223157132796,1.988443643279848,2.141588399097592,0.5034169108171349,1.4160422678890938,2.6784220256264395,1.3171127106038325,3.339129528131346,3,0.375,0
14.042,2.6721900068153457,2.8750788414526918,3.80234293309021,2.402442928218676,3.014388627102623,3.6987020751618074,4.0908489646474,2.320128615633031,2.4413960915752537,4.5813067123083,5.4278049015980585,2.8283327293378493,3.367078188545128,4.0268383085723745,3.476665987564681,3.5817520929066227,8,1.0,1
14.142,3.7520814245244627,3.677837981559342,4.604637871510705,3.951145595660012,5.859105890011497,7.695022672456608,5.448341066043272,3.3108027675077096,4.5149149432682805,7.076170352694463,7.348990735227136,6.717981498833195,9.071760106914917,10.087044065251211,5.4472343605256555,6.26379104039003,8,1.0,1
14.242,3.801974483184974,3.3066989605438044,3.8107277192779394,4.073435778374984,6.112985293078387,8.62764518213543,5.446716596335187,3.9101447710191595,4.703534345768199,6.084472354655465,5.528861637363475,7.239962391235148,10.083913099178638,12.785825558980338,5.468869917139343,8.904899540701283,8,1.0,1
14.341999999999999,3.305965837293542,3.024276847144723,3.5446324853164715,3.2688563546184124,4.293728269040652,6.626729680513,4.462098682597087,3.278677558704691,3.8763343900884086,5.541749797551898,5.217723371617496,5.461974401125589,6.751948086539369,9.48000943816026,4.086272288872195,6.799788025636057,8,1.0,1
14.442,2.489511569957601,2.6598891735729744,3.412156412603263,2.575125523977844,2.8141798928090416,4.594645611093248,3.0926198210439613,2.2448660042848445,2.0692021624589456,4.394267583936491,4.829602443710896,3.5770590632536576,3.0744899557863175,4.835274118157492,2.0363974604281734,2.9309065389695865,8,1.0,1
14.542,1.2717684753929506,1.5584418990772806,2.1709596081891585,1.4627486288628566,0.9404610323900658,1.3466421829292647,1.6317588457872845,0.9897045080876256,-0.004495071631399855,1.1666381423003722,2.1777336505498974,0.896117778151243,-0.14214307001496934,-0.2030819070586106,0.3126555319947688,-0.6991545047744159,1,0.125,0
14.642,0.7997671548201409,0.866137156050888,1.2396619174272971,0.7835082478311589,0.8154251348304487,0.3501892918719761,1.5481228800014002,0.6437094595232307,-0.5943837424648974,-0.15334150215718068,0.43826492819286145,-0.44715152215868903,-0.09105447597365132,-1.3232434392991699,0.21718985518256012,-1.5005705723469098,0,0.0,0
14.742,0.77276337593435,1.035251917928337,0.6943730736798724,0.6567741376363812,0.9432124886274428,0.46300779098187117,1.3887226911281971,0.7540825841630691,-0.630038275116204,0.3480189753341733,-0.7570909030661715,-0.7326542275453005,0.30462666250521003,-1.1194563215089208,-0.06646355660274621,-1.1575852593741218,0,0.0,0
14.841999999999999,0.7300514230009097,0.8504127663151972,0.4788681984234365,0.678785872576737,0.8074108692730532,0.46956258964113545,0.8630356482760266,0.6935510944269352,-0.7064318536101182,-0.2371668782932303,-1.1360604854278433,-0.6840269301406882,0.03226529412249938,-1.1039172572887739,-0.6727522253948341,-1.3800845447033114,0,0.0,0
14.942,0.6450273922918143,0.49085946797963975,0.6926394048748459,0.6519199345024161,0.5877198364119138,0.3477243380785277,0.6757130156640052,0.5015538564351667,-0.8662120435802535,-1.1122023464127404,-0.6745016484139936,-0.7601831533721508,-0.48305729053264734,-1.308604349374202,-0.9642090873603371,-1.9559129223921037,0,0.0,0
15.042,0.5003722696882918,0.4214482073704872,0.8208732302095754,0.6344067141984006,0.6084946473680262,0.40682226924250875,0.6892793893083488,0.3786798019582609,-1.142258000784205,-1.2527499316168522,-0.37631188989899694,-0.7977327176029255,-0.4474217805943949,-1.2154568588108132,-0.9571310696445121,-2.370033540637718,0,0.0,0
15.142,0.3459153782961033,0.4165158037922859,0.8327752772255382,0.6339936300487821,0.9798485976801032,0.4787516555536381,0.9998541913373874,0.34479184395340506,-1.394972822563462,-1.2666750565845935,-0.3563537429591911,-0.8046395588966598,0.34648575859847963,-1.0787239651402276,-0.5039909768959705,-2.475664694105877,0,0.0,0
15.242,0.45590561968801513,0.5095987271139399,0.6426122446215533,0.5766250689778976,0.9058029759742996,0.5334120335169076,0.8953233367835706,0.7719970042047178,-1.2416486917250307,-1.0689721639533554,-0.810716765744837,-0.9413891341970594,0.14846262633277482,-0.9912733637725815,-0.6940351977869004,-1.3489385155395328,0,0.0,0
15.341999999999999,0.5121070923221074,0.6381640530838136,0.39491433326522407,0.5966480874565092,0.5747208836041939,0.6143741847194906,0.8012692832291638,0.975414955638413,-1.123675338523913,-0.7023540869760189,-1.251206808321518,-0.8962204725469617,-0.4169104168639894,-0.8720698845468998,-0.8138876170446105,-0.5214582563070922,0,0.0,0
15.442,0.4955446077645202,0.6431986249901395,0.6058025732792428,0.5244679389983485,0.5626614062929967,0.9666882742292346,0.9900225856445491,0.8264908469776083,-1.1394683015083893,-0.6785745346819961,-0.8681682125425121,-1.0778033299411736,-0.4317291982482122,-0.33357575398616973,-0.5227448796585733,-0.9975333320913642,0,0.0,0
15.542,0.6067128189903271,0.5568683801926362,0.6544792505370427,0.6660121996018671,0.6329942215410674,0.9782748317407247,0.9429254092603899,0.7464142439937483,-0.9418203109805476,-0.9227591415323977,-0.718192051197989,-0.7935640702749229,-0.29999733849618454,-0.29687789282100563,-0.5723410460632531,-1.2003934176379842,0,0.0,0
15.642,0.6580728046496935,0.47592745922433155,0.5976564253345592,1.0471567215627793,0.7925086547292525,0.6002159200004363,0.7465200045905853,0.7453735528457088,-0.8703645246453815,-1.1237450413164414,-0.8212171887550717,0.1441764372591253,0.0006681824438548867,-0.9024166804845761,-0.8469251051099039,-1.1937412814799793,0,0.0,0
15.742,0.5217114007057052,0.5486083592691382,0.5662410045761959,0.9758619988228903,0.8781179858973598,0.5431091233468475,0.5616634046982072,0.7699189422313517,-1.1445298461045104,-0.9314505729832143,-0.9001468934864075,-0.13938958743452318,0.17155529564036565,-0.967670808061251,-1.0974403061963707,-1.1054190638172228,0,0.0,0
15.841999999999999,0.5905491765771727,0.5774017859184719,0.6553975567532094,0.8598513812812537,0.7488694347538148,0.5545805787531966,0.8746037489006792,0.9259748285446985,-1.0354742547266054,-0.8432166781284677,-0.7578404089627032,-0.42453203080377183,-0.09475442833321908,-0.9391871736909059,-0.7437806808618558,-0.6047682394878837,0,0.0,0
15.942,1.0085098163228832,0.4985021799012989,0.7233333105564795,0.9495526592505699,0.5705368351393563,0.5294010568300698,0.8935314416577728,0.8343875545383728,-0.27154797465321195,-1.0660294304493871,-0.5945290137034995,-0.1588481919587375,-0.4190524768077535,-0.991216595108936,-0.6954400528812642,-0.987048036007455,0,0.0,0
16.042,1.082398150939031,0.8663343769785885,0.7587233658325643,0.6950985019660816,0.6665011211246675,0.5234355064338895,0.7720462348965234,0.5644003489168782,-0.09374123382254732,-0.28923642013026984,-0.5969306682421421,-0.763853485576504,-0.27947203440289453,-1.0286574638424155,-0.8416436319802975,-1.7822878157019795,0,0.0,0
16.142,0.9333980914733477,0.9993984114148263,1.341896553518224,0.6670654130402026,0.8299282056821374,0.613808504297658,0.8894221414630101,0.6398259072944981,-0.3534760742233992,0.16769527237634202,0.5272795705530938,-0.7674197162121057,0.04030098483654947,-0.8841143836938418,-0.6569735309126068,-1.5445944776838179,0,0.0,0
16.241999999999997,0.7576141558992591,0.7965051015626419,1.3453507886917064,0.6441924165319228,0.7294526016596725,0.756849450584779,0.7107217634422142,0.6205989406250529,-0.7125117951227576,-0.3752629796615206,0.5895698663233674,-0.8480675642027578,-0.16299277419118677,-0.6353525636432937,-0.9099966930653555,-1.622580302609752,0,0.0,0
16.342,0.5563183153462624,0.8444884092069415,0.6378233942264522,0.3591715838199596,0.5738211167945734,0.787511044998037,0.6524258592057863,0.5613442302608314,-1.0172478784351755,-0.23076506968496596,-1.0133329824053283,-1.473109472797768,-0.4050170459473252,-0.6004400817267813,-0.9729766276879019,-1.7933878139299502,0,0.0,0
16.442,0.4721211361485362,0.7065378496279852,0.15032431343125943,0.3119873184330081,0.6166174610928348,0.6152364623704512,0.6705754052405415,0.588975800074395,-1.202758077807593,-0.6928825862068042,-1.8202934464649292,-1.56786093115222,-0.3210009255934237,-0.9040577044107163,-0.9417418588870525,-1.6867024917097688,0,0.0,0
16.542,0.33735362458588486,0.43875211823381155,0.200479969681564,0.5243452172970351,0.48147067331794136,0.4393933863872951,0.7017785495737554,0.6141981903172355,-1.4161285534244101,-1.2355330863787202,-1.6985235160518095,-1.1217024802968258,-0.6637202018631225,-1.1441036997318488,-0.9018610108089715,-1.6064441675202037,0,0.0,0
16.642,0.4200552820863068,0.4438772791713526,0.3420704698533936,0.7020130674058082,0.26992733681837233,0.4867635331526235,0.7452633229038804,0.691673227238684,-1.2721516618421178,-1.2385781950015244,-1.3692325016004674,-0.6419356084457349,-1.0150210963737583,-1.0678503243581283,-0.8331389207597475,-1.34048710014759,0,0.0,0
16.741999999999997,0.4489753093186069,0.3736070796846502,0.36565183786125893,0.5601245121094862,0.3238749956005912,0.48627317085366717,0.5620601258851455,0.62559376973387,-1.211677247985086,-1.444627195226095,-1.315200096381123,-1.0999736962643325,-0.9027327922005803,-1.0644941117533686,-1.0969860305075105,-1.573783611026769,0,0.0,0
16.842,0.34813548042855186,0.5890659807166394,0.36118121553995475,0.35520194636587726,0.3782276637481229,0.38488276973140284,0.5526400172016771,0.4813073436404982,-1.4000318127652587,-0.9349109672964836,-1.3228647240200724,-1.4778804586000889,-0.7834001546098663,-1.2466314476226645,-1.109986356063211,-2.034958617755687,0,0.0,0
16.942,0.31318934754295735,0.6419663752651533,0.419082690387011,0.730264802384795,0.4217252222568379,0.33661815669708434,0.5841421375552649,0.5700764796861498,-1.467926534690415,-0.7000922147604551,-1.1961418252229357,-0.6931920729566278,-0.7024151788811825,-1.3269948862749101,-1.0544660648420658,-1.7905688305438776,0,0.0,0
17.042,0.5198245747225837,0.5916030398690403,0.5242485167449117,0.8067266262068598,0.43180868954696655,0.5951398948166673,0.54341608851658,1.0149585079806982,-1.1357109903700955,-0.8178245377868933,-0.9851332577686189,-0.46728356262999887,-0.6826783228734057,-0.9514578023685136,-1.1008985518154042,-0.49063373230201873,0,0.0,0
17.142,0.6083092124983611,0.6820811824531238,0.5485860363048938,0.5179959784437923,0.494635258101835,0.813101502193926,0.6309396398953764,1.262870954778563,-0.92487489025602,-0.5906898616008542,-0.9392743622100296,-1.1619179547992107,-0.5874756583760521,-0.5184814196525647,-0.9827052581350927,0.380277326439096,0,0.0,0
17.241999999999997,0.5924773494328589,0.7794047749265487,0.44753466463520625,0.6504099604137359,0.5583620390084681,0.7537508431096666,0.5971238972470871,0.985896940664943,-0.9509004125208806,-0.34542218023357407,-1.1501734629145242,-0.8854308983584959,-0.4655457169262949,-0.6272033582694772,-1.0348840647167294,-0.666204196371806,0,0.0,0
17.342,0.8542719831516876,0.7875929624560065,0.40290923895226666,0.7917205594370131,0.8507684941057416,0.7506165225778936,0.575529638238223,0.47201799035832537,-0.543600586754182,-0.30328557540970263,-1.2357436943871272,-0.44738419871514673,-0.029054179928566803,-0.624512250445366,-1.062270083786074,-2.117615006172932,0,0.0,0
17.442,0.8880038708023575,0.9788559187878189,0.8585997402009427,0.6168862932965744,1.106149539101458,0.7585943675036361,0.7849208531860504,0.599932701312688,-0.540934865159048,0.13721487682352063,-0.4686150835172782,-0.8820175134696233,0.5367931097984957,-0.6030402391113086,-0.7947425460093598,-1.79237084304273,0,0.0,0
17.542,0.5139856142494481,1.0159073161940986,0.9594314694626994,0.8582055109236576,0.8984396243719273,0.6725925587241501,1.0257444920858851,0.7940506565946464,-1.3235265006734678,0.24603003760531586,-0.16705418096041166,-0.42133252006054267,0.10105444037839924,-0.7385524151314048,-0.46086740861572134,-1.025705820801158,0,0.0,0
17.642,0.46735957302512865,0.7152167636381765,0.6330208335086508,1.1623815168708949,0.7299536074844516,0.7108753321639852,1.075219060924232,0.9315047172391387,-1.316734906715364,-0.5214174777984188,-0.8111442245064971,0.4536932639654731,-0.2023549646576094,-0.6695094782507193,-0.3848996691572023,-0.5978327680300369,0,0.0,0
17.741999999999997,0.7252951540813589,0.5347256779741222,0.6998131993610648,0.9976733529950534,1.2074553692096535,0.7909652520294311,0.8622385419388339,0.8699742425341433,-0.7327257316281578,-0.9618779335998099,-0.6748890435077461,-0.009399676943208845,0.6817764306861901,-0.5347927124931987,-0.6970597434451109,-0.8968892605947045,0,0.0,0
17.842,0.7691172035123883,0.5872413860370566,1.0840456169854915,0.7268193734467757,1.201603540940127,0.7458226656019302,0.5929663821060194,0.5934076263798217,-0.6474850978363823,-0.8448435977097558,0.1227715799247753,-0.5887069485091058,0.7253037376773983,-0.6284517558730748,-1.045772557089537,-1.7433003025305662,0,0.0,0
17.942,0.7369645501032096,0.6209902985823579,0.99510452419573,0.6312751750397007,0.7577901417143019,0.5105443257492025,0.6108708364832145,0.6134858650669214,-0.7040106446411986,-0.7587153591155805,-0.12923631426746712,-0.8266879511272494,-0.06509329021824882,-1.049189967042493,-1.02094997833689,-1.6243776199010231,0,0.0,0
18.042,0.7751892720547244,0.45383250469838476,0.5791423436556277,0.5200345734455298,0.6921445998890916,0.5140489551277757,0.9162555664156019,0.6018000799378961,-0.6328376593610924,-1.2217000785686798,-0.8615591334418715,-1.0739464458077506,-0.17726666424566223,-1.0455770294124949,-0.6279467211221994,-1.6760460915378967,0,0.0,0
18.142,0.8676507624199773,0.40308770521393883,0.5320065162660982,0.5093777332224865,0.7233846515282756,0.5996120716192243,1.0548682732795402,0.3792413301004596,-0.4792623517662899,-1.3138631432504024,-0.9574366014232416,-1.1277017748019453,-0.11389861760725299,-0.8682693491815826,-0.4151888034600189,-2.4584918281371624,0,0.0,0
18.241999999999997,0.7226405452160595,0.4701409490398657,0.424348171423488,1.0096921273524722,1.1740319121335605,0.5612638250963193,1.0419502713659412,0.4417047758774551,-0.8077070103655771,-1.1201204330864623,-1.1954383132216713,-0.15615055280490808,0.597661138265552,-0.928078783056207,-0.4362163235068923,-2.340757933979976,0,0.0,0
18.342,0.5619659034192719,0.5676572109603687,0.32649739460208466,1.1876863175255423,1.6980922402130656,0.4490049076675498,0.7984093012607866,0.5885866075712419,-1.0421791052029603,-0.8925923617924865,-1.385414080456048,0.47749612164635974,1.7074443173083538,-1.1589961371268842,-0.8827102944885408,-1.7583463588223338,0,0.0,0
