t_center,rms_emg1,rms_emg2,rms_emg3,rms_emg4,rms_emg5,rms_emg6,rms_emg7,rms_emg8,mean_z_emg1,mean_z_emg2,mean_z_emg3,mean_z_emg4,mean_z_emg5,mean_z_emg6,mean_z_emg7,mean_z_emg8,channel_count,frac_active,global_active
0.1625,0.5952015934072457,0.654154590227448,0.3998801014587326,0.9120042517626691,0.4439503638645132,0.6347674268795793,0.4908510437864279,0.6555340653521946,-1.4218745423328827,-0.8099841889503704,-1.511504510300388,-0.5554113045384088,-1.1775354972239307,-1.1740245756262826,-1.1864260774248878,-1.14879430166722,0,0.0,0
0.2625,0.5819430881492477,0.7033755398050173,0.6063567003829077,0.9248142800846358,0.5735629164817994,1.030655769713543,0.919770504407636,0.7593343874440266,-1.4534168086430501,-0.6700299076854515,-1.087713912097733,-0.5029562152196744,-1.019755936922663,-0.7303794661834385,-0.6828410531246061,-0.8503740384057447,0,0.0,0
0.36250000000000004,0.8679718379974388,0.6849907992053332,0.8986007902375817,0.7581087944191913,0.6437432295505794,1.0112962227296314,0.8905765215352895,0.7932309371279956,-0.8811068753487155,-0.7170668990495774,-0.46880386899829035,-0.8214820715301517,-0.9226657067352891,-0.7477442436212072,-0.7320146212408468,-0.7821332488505055,0,0.0,0
0.4625,1.0297913609925322,0.8592822408483797,0.8644218447394589,0.7053230342612585,0.7945782378399123,0.756308937363961,0.5361405131116471,0.7480704930383756,-0.4290994000312383,-0.3525609114271608,-0.5773860076417856,-0.9701557326964627,-0.7516455028500126,-0.9991516733707938,-1.1157716706579408,-0.930818591738921,0,0.0,0
0.5625,0.9079684998977766,0.9718576285183343,0.7640513777399216,0.6530567338512416,0.7325109635037228,0.7414582878923409,0.8350190605999277,0.5138950005182075,-0.7005226420563462,-0.09720491459468607,-0.7810186831487169,-1.0673627001843407,-0.8631805377160415,-1.0103921282337038,-0.7582759263342767,-1.4833684835657328,0,0.0,0
0.6625,0.8823626977814718,0.9189639173782771,0.9301374002026084,0.7800086855912569,0.7663440173016293,0.7852768011023521,0.9220719477881528,0.7622007155734516,-0.7566147275015327,-0.2247997910116322,-0.4017127951267307,-0.7567124649875074,-0.842690556535766,-0.966068373174373,-0.6031268649911244,-1.017144954724024,0,0.0,0
0.7625,0.9384238652252065,0.6272201573111618,0.9841919796056738,0.8744648402957729,1.2213276125003625,0.8615449809603428,0.7274930404170475,0.798145861964198,-0.6513373546995073,-0.9519859998668536,-0.2627544645903,-0.5487632405578773,-0.195559577602117,-0.8817944504514983,-0.8665267488364274,-0.9199909385078433,0,0.0,0
0.8625,0.9441302417081823,0.6551967123301102,1.0513128256236974,1.0828270908128135,1.2645208905607315,0.952429082122726,0.919280950371433,0.46076730342277333,-0.7687493690273459,-1.0170835109675809,-0.1390542956857034,-0.1046461830458386,-0.1093955898381682,-0.7844469411056191,-0.7070417074853907,-1.7758265773566972,0,0.0,0
0.9625,2.774119056668865,2.1404969245352894,1.9117704402167723,1.7249703898882724,2.12001532552085,2.9709382717467596,3.5189371045395683,2.371804019946883,2.5210546192597945,1.6252757426537983,1.409464629596215,1.2097262010353633,0.7241081737312086,0.8400514003709161,1.8982520727194159,1.2992905596925783,2,0.25,0
1.0625,3.2823697652582666,2.494266136806329,2.084134417054404,2.0006365792144885,2.881661091771019,4.777318561756247,4.577054310003045,2.922947822887003,4.5864425188685365,2.8625085582866863,1.8917137950837846,1.9539131583627343,1.9565117530770428,3.2289097421812154,3.8736647058027445,3.6083220480124827,6,0.75,1
1.1625,2.098646900261058,1.6718433750817763,1.5433378624351508,1.7386290849171888,2.51523017176113,4.258351620639346,3.2750329565114162,1.8793276406776596,1.76257047552633,1.194653327306545,0.797021860486743,1.3674447160513026,1.4809772940678463,2.6110897378516693,1.988173478188902,1.1706913718981795,2,0.25,0
1.2625000000000002,1.3829180851382106,1.3889455841055498,1.504035351787392,1.4868683286336788,1.7007430936769006,2.45948731947857,2.130100580097727,1.3526971435630728,0.41832542650534493,0.7422108816362173,0.7331029859898489,0.7657084342316308,0.43060457943781244,0.8803109494848617,0.9320180365693064,0.4046496831521672,0,0.0,0
1.3624999999999998,1.3609245152192975,1.278473234515894,1.136327526461497,1.1349230551492167,1.1647809617822082,2.110871672666894,2.0421100864344663,1.4183399838151447,0.3006331117765059,0.4580814202856135,-0.29110053120897184,-0.08731450284837701,-0.2853684655479914,0.5021421888210448,0.7423283864775769,0.5219448463201383,0,0.0,0
1.4625,0.9595378890567947,0.8159115879285357,0.8334969933985372,0.7654642210965497,0.7412013961759594,1.5858521196655002,1.110622867816542,0.9230611623834071,-0.8690866689981129,-0.4756243616041549,-0.7208500565117517,-0.791340386009834,-0.8063204197570413,-0.1836219415660246,-0.5989490992363059,-0.7160455613330593,0,0.0,0
1.5625,0.8738651301587256,0.7264394498963126,0.9976283958812117,0.6023918287112636,0.598670710927724,0.903105255318763,0.48502675827697206,1.0391987096046271,-0.9712596080014668,-0.6245180444011044,-0.2516742782259561,-1.1971100117692501,-0.9773572789592343,-0.8477801916530534,-1.1701461678532272,-0.4869153377615412,0,0.0,0
1.6625,1.1155058895216898,0.786458936754477,0.8806811468163859,0.4536907340545143,0.6041626799774866,0.9692507573112222,0.6819480061031339,1.407263134107388,-0.22853633296662687,-0.4932639375485452,-0.4796259981182173,-1.5188482559392262,-0.9680914853988761,-0.7750078697460503,-0.914965935832444,0.5274119417440317,0,0.0,0
1.7625000000000002,1.256958527230712,1.099017391376146,1.2267896655739152,0.7019847050397118,0.6745184781756626,1.4610134929316647,0.8906172220754507,1.3262737575217416,0.09131439043689657,0.02162166256581152,0.1224958769435541,-1.049075363291683,-0.8888742591252763,-0.25467096879373885,-0.6383501562128284,0.3667318450798364,0,0.0,0
1.8624999999999998,1.4247790916105898,1.522712918781985,1.6395337590213106,1.2512297794635472,1.0115404872547995,1.4293288714044416,0.9948297583805379,1.3217015985980423,0.50541139030123,0.9742629349150467,1.064368890930536,0.19197102431055257,-0.4746565392419726,-0.3132912906309192,-0.49911479570797357,0.3778530979063548,0,0.0,0
1.9625,1.447010780449842,1.7126926816150516,1.5016221303733366,1.386000759331492,1.3206457876494815,1.038616840651595,1.559299134828395,1.4463598887609614,0.5474272217634681,1.4280801109538732,0.7570576271063182,0.5788030999275597,-0.026531073541808062,-0.7056718525495888,0.12318091663275771,0.6716958486896152,0,0.0,0
2.0625,1.3456039698969862,1.8930736862837125,2.181268548519722,1.7559800249346207,2.0229433650486968,1.8959031534949582,1.839317891847844,1.2772564589536173,0.27284186359731594,1.7905812329168134,1.90834374017028,1.2442686436019756,0.7774563918182236,0.07786739544853756,0.5761285592291676,0.23300658803659252,0,0.0,0
2.1625,1.7954008792664635,2.1847702017478685,2.680461085644845,2.2809909448790315,3.200864581884979,3.207482686427397,1.5755252069976458,1.5975101213140794,0.9717559218036733,2.357930117225478,3.3268312683167194,2.5713289238744834,2.339798032606131,1.6257657307782316,0.24639029248276348,0.6922507015870768,3,0.375,0
2.2625,3.27542235464083,2.7246169347297275,2.7761490778054476,2.4452098116206824,3.755072257703598,4.9706878156043945,2.4175249288619347,3.0614716834804963,4.327569288382584,3.4250573291679296,3.5118276822238546,2.982344562333816,3.182316081838465,3.518812351642266,1.0979689034207858,3.8668873231685272,7,0.875,1
2.3625,3.280133979066508,2.9442559341588592,2.857147131491022,2.246155389445838,3.220303308570769,5.264232148997306,2.6796181860701402,3.2825933466987816,4.459555364360878,3.8588315633299937,3.6122108068135668,2.4650729875018187,2.3638148837477098,3.821544064477449,1.513689942335148,4.583830980405674,7,0.875,1
2.4625,1.7988438521167658,2.03783964562602,1.9603708646771705,1.7424230576579944,2.599415804866852,4.141954316791205,2.1080506779265207,2.0578163421414333,1.0776565748753155,1.2742126950294888,1.143025644701822,1.3336530438407854,1.5985310009522657,2.583084018043859,0.866566406705856,1.714351701045745,1,0.125,0
2.5625,0.9084568856019273,0.6558086560503255,0.9482525048146636,1.1699485065031419,2.4094666661660455,4.322241685634873,2.1279308226469813,1.1740821578883405,-0.941468408978522,-0.8053308031726705,-0.44467850193599806,-0.035278947529067316,1.36398345323591,2.8532891604257498,0.9511103659595764,0.06285172402624926,1,0.125,0
2.6625,1.5851915269334154,1.384581539188537,1.9625369317381907,1.6084256691595722,2.6986542857197646,5.191699117962465,3.7901491237100715,2.097701270468317,0.11583400820971984,0.43002520102679975,1.458702455020695,0.6151522248604604,1.684735681323496,3.917015263080746,2.7605858036452764,1.6324814351364874,2,0.25,0
2.7625,3.075258738315263,2.506994234786789,2.81316699677998,2.913616752467962,4.445816097638461,7.044131786856689,5.44017655229051,3.823988276891618,3.9901465090701906,2.812055127694175,3.5346243828676736,3.7413217990820353,3.814337685179169,5.766902684532294,5.1909411038908955,5.667232013493003,8,1.0,1
2.8625,3.472099640578408,2.890643372708241,2.5479159625633083,3.2384505538142556,5.2533271023901795,8.023784801172164,5.6355866229643015,4.495452269900156,5.054660499779157,3.672348418753265,2.832596477766113,4.561712986088719,5.029514291028542,6.841842885039584,5.433553146462124,7.262440963865707,8,1.0,1
2.9625,2.2691149248750118,1.9791306540091478,1.4197160196475485,2.1890819159180763,3.8589534108763153,5.764625889114928,4.088076932086989,3.112512646661612,1.226989196442174,1.1723328641040507,0.2998634760820789,1.6976142517278274,2.8088085826394558,3.640780337797746,3.0175076657015274,2.742132975115426,5,0.625,1
3.0625,0.6204626788536567,0.5897222781522214,0.6849262282681611,0.7154014846179669,1.5585195441206336,1.8595724710595025,1.855819497092154,0.6242396220992757,-1.4905018269055943,-0.8987776662879076,-0.8914937003686998,-1.1735113428678121,-0.05851401910839085,-0.1795157836340561,0.48338601589960156,-1.289192128386009,0,0.0,0
3.1625,0.7612159829521834,0.5239146148725765,0.7055386453904365,0.3417763787121769,0.5216702042098259,0.4668389983958324,1.2917368778911893,0.6639416646911392,-1.1031049634661172,-1.0361316166261523,-0.8461835182622595,-1.8044079873194674,-1.1353419512124625,-1.354802635322676,-0.12327022523508387,-1.1061019446101044,0,0.0,0
3.2625,0.6564390024804653,0.5883495204766706,0.7859264824840032,0.5209486888466385,0.47232452113245493,0.4609249794858316,1.0527019513007996,0.605067908946259,-1.351473602875987,-0.9175785501914633,-0.6754635795516354,-1.38409441705127,-1.153256604589719,-1.3507763861797875,-0.4855587584316169,-1.2740372896735013,0,0.0,0
3.3625,0.6383644466147557,0.9464455127102077,0.6917667746578394,0.5409777835908157,0.772906798952292,0.5869260220399308,0.7232600249134906,0.5795165612741422,-1.3837516086047046,-0.23981669589591634,-0.9319478895522678,-1.3410937971965635,-0.8083141895525514,-1.1837845311683213,-0.8535443765836638,-1.3537053879972265,0,0.0,0
3.4625,0.8787739401953164,1.0327617727893688,0.5049389675778172,0.8877157173772898,1.0205810394931922,0.8010265997175104,0.7156247800638896,0.7495642157924263,-0.7761267929511863,-0.06644073487571403,-1.2799002270217736,-0.7254580768193173,-0.44156871841348483,-0.9828031938476159,-0.8689232564723466,-0.9097082251879648,0,0.0,0
3.5625,0.9722344105620936,0.8255577777740224,0.4714309743502248,1.14349266791644,0.9951914095760306,1.3218102321511753,0.6990911632997339,0.7462551122318677,-0.5321174181921335,-0.463711543921512,-1.3578104700327305,0.02839657805890026,-0.46392867433690893,-0.4232587769547111,-0.885634466316681,-0.8827020580113745,0,0.0,0
3.6625,0.84025797400901,0.6425869262964146,0.35556909809315,0.9318731402866909,0.9845557609276347,1.2718332078067085,0.9137524824542219,0.5799733183328136,-0.879340395001346,-0.8043297133149657,-1.6771845807481716,-0.48845727039308157,-0.4748915361799391,-0.5165307202278001,-0.6321848771046399,-1.3126485264920293,0,0.0,0
3.7625,1.0507996568498073,0.8967385925616816,1.0491332467511052,0.8538749758941935,0.991462409015014,0.7675617282920321,0.9407131786709694,0.6444394273330062,-0.4939405324054627,-0.4003881664772452,-0.5901413625916644,-0.6214988106955254,-0.4615504789928381,-1.0201650573690069,-0.5881486129760138,-1.2269275568962896,0,0.0,0
3.8625,1.186637016421438,1.1097134164881541,1.4455124240005575,0.807449553733229,0.8339531661680434,0.8707131388103452,1.040716936974958,0.7626669288783704,-0.07961898013995458,0.15221962317032284,0.699426869482388,-0.7639662705027983,-0.6773332250342824,-0.8916802753565735,-0.48439208785959764,-0.8857553051853015,0,0.0,0
3.9625000000000004,1.521688579658341,1.7843222045911673,1.8322162936787674,0.7400380787960719,1.0264101014035767,1.7988543920981503,1.778902543736315,1.1006386831465667,0.5613666711160356,1.2933465380305043,1.4686154653542556,-0.8982146701410935,-0.47496394812028214,-0.007261774276610783,0.4305764069359553,-0.27090077427512793,0,0.0,0
4.0625,2.915541337231423,2.7749079768371536,2.00475656640266,1.0845146085793091,1.4901693710689967,2.3778908367780818,2.02652889254337,2.555655807322805,3.5647880809604993,3.4801567934835567,1.889649683428401,-0.14003566298374484,0.13503099618670597,0.7805019783178309,0.8085079813033671,2.628143088740412,3,0.375,0
4.1625,4.591691964052803,3.4923982802042874,2.3405317678134865,2.0238528246243344,3.195854854303685,3.7805745835631073,1.629176352753271,3.988406736522889,7.639997437640584,5.061285992710098,2.440099814670523,1.7625443304177526,2.059651174816089,2.0535358967198203,0.22704662506178638,6.264734389741149,4,0.5,1
4.2625,4.498373282337411,3.4181403072720262,3.3822729616791105,3.2290899218254494,6.042292167937045,8.482151435114996,4.993620388675796,4.35704301898124,7.408169982216673,4.89068375220636,4.636685141216488,4.59352131257114,5.830353102271489,6.758639837527677,3.329261667230814,7.280555314358862,8,1.0,1
4.3625,3.0300945264545995,2.8146542799974994,2.9652277036256205,2.9830727440343456,6.4679157462872325,9.94858015293925,7.226745169203724,4.015082236100183,4.133349019934016,3.6771649184673394,3.3265011236602646,3.7167612184937893,6.52669256873134,9.045753827795044,7.323916041271356,6.507397398251132,8,1.0,1
4.4625,3.78708266003177,3.207802111526992,2.667746435599653,3.965617871434728,7.1748456107494185,11.006219028530337,9.689244932613649,5.0541954751443505,5.625805725712833,4.388242515540031,2.789447390883728,5.300993525420063,7.333124395608293,10.106672917702202,10.377986710526839,8.55232703227119,8,1.0,1
4.5625,3.907297578269185,3.2302773608428668,3.181187804461484,4.618666610700688,7.061506322745654,10.271500748317266,9.801315597832705,4.978140559058461,6.04750441396525,4.393704474153382,4.250663600041538,7.506487500368413,7.113069227624188,8.962619864545069,10.506268042989143,8.185924835941517,8,1.0,1
4.6625,2.373577922349141,2.080042863648066,2.253910000074462,2.8922505715709566,3.7013970151202984,5.125178753555019,5.984537049967476,2.7807770663264635,2.4477539442428196,1.8952401089121589,2.10207447316867,3.2320523819604436,2.4470289502295284,3.287888119513387,5.14793644219518,2.9708471825266205,6,0.75,1
4.7625,1.367965648516249,1.0637643087715287,1.183218206825049,1.0973902018530628,1.4039981831702937,2.032134208175883,2.4583035908786073,1.097227788820892,0.1945659785710566,0.016066005580883613,0.11275862772551419,-0.24068347106065777,0.04860067916363497,0.20713140588615406,0.9208303392683344,-0.34897569087664027,0,0.0,0
4.8625,1.0120511674474557,0.9731561379356282,0.7355168363268554,0.9789670625356373,1.0782865643686257,1.119904789918415,1.059754534424825,0.6131205051871056,-0.480206698527539,-0.14449902290897193,-0.9285617310243559,-0.42628614300670686,-0.385173810065886,-0.6034118342964887,-0.41816140365358834,-1.1912319809048213,0,0.0,0
4.9625,0.7616951907663413,0.9599077351533111,0.48705210894387574,1.1198561692881983,0.7205672782832845,0.9210042227232592,0.8359298224579461,0.9724182427885739,-1.323122734482462,-0.19476465310052046,-1.3244038008881598,-0.03749389759328567,-0.8767452232503915,-0.8678499607621519,-0.731568118134955,-0.5015027538474093,0,0.0,0
5.0625,0.3277433141072008,0.6477493594340706,0.551496785151235,0.884335178796505,0.5799263899035038,0.5267650744833285,0.7235073949390513,1.1144223884839788,-2.0695802516544237,-0.8050887270494728,-1.1669489321412714,-0.5706525418432101,-1.0103264889511367,-1.3016756362608877,-0.8569353289380071,-0.12961027085404556,0,0.0,0
5.1625,0.5143118545147827,0.5253875310010135,0.528324387099159,0.8614024744867702,0.5896418813340317,0.5995887879001963,0.9074161869410293,0.7507879776863453,-1.6431778054009905,-1.0158617285297824,-1.2211817426878389,-0.6043735342213093,-1.0037110736897248,-1.2498324942534103,-0.6179936401543396,-1.069369693723349,0,0.0,0
5.2625,0.6202924600282687,0.4760013639591961,0.6623478572247262,0.7948967859522356,0.6782020014137498,1.0170586931101604,0.9353984505020927,0.43200522393133456,-1.3529914698223577,-1.1245565241992417,-0.9632041137659004,-0.7896726172554352,-0.9239557814431528,-0.770276133872218,-0.5737730887117641,-1.5979000524235345,0,0.0,0
5.3625,0.7215832829750441,0.49484749180141485,0.7764127491022783,0.49188732562132104,1.0583311804172357,1.0341355126719833,1.1021841545906905,0.5375296110071146,-1.156019114343996,-1.0991621403492935,-0.6878728325170581,-1.4214261629629437,-0.4315516908450954,-0.7119143327052655,-0.3875477003546427,-1.358127669271403,0,0.0,0
5.4625,1.0625072060800234,0.7180926273819718,0.8470788553464084,0.3780297700770965,0.9736020037681046,0.7312821251460698,1.2046078089622054,0.5889543384227531,-0.4016024864352427,-0.6632954927454925,-0.5498935853860051,-1.6702800900699513,-0.5780924655423509,-1.044541440770579,-0.23344315470418608,-1.2366779958690295,0,0.0,0
5.5625,1.2607031816766852,0.7540971291860827,0.9795071521687997,0.8556903847915954,0.7297020332011283,1.5958081112928946,1.5736349810791292,0.9240717472203911,0.08925183292816945,-0.5673609079101205,-0.26948207779014205,-0.8751027742071545,-0.8587361005850518,-0.31855613359406404,0.17341832907103324,-0.5971085627024793,0,0.0,0
5.6625,0.9009259363733104,0.6324207525465608,0.8894746522051276,1.088190276351816,1.0228637209579807,2.0749514724413536,1.9811371200457981,1.1607140420203121,-1.1805958624343957,-0.8042497702315405,-0.49341817697200746,-0.1487370521017237,-0.46185468515275957,0.4371394054178004,0.7751997014663133,0.048445811522207505,0,0.0,0
5.7625,0.9831048114142993,0.8853942807219171,1.0871611632442253,1.5399970443114124,2.4228723232188734,3.2696517241295795,3.6679932000891173,1.5865127011767628,-1.1269570596536205,-0.35965091716924635,-0.1510255375199254,0.6884647811932431,1.0621535911965567,1.5124340910190508,2.505893285894644,0.8413299663547802,1,0.125,0
5.8625,1.6486203289039463,1.1238833758866884,1.400706792619838,2.0475237145688565,3.1406265422592554,4.472027987602012,6.597190059165855,2.929554076411651,0.8653207741890414,0.1916205066075139,0.6120126438067146,1.9966600295977261,2.308107840835204,3.0426868048511526,6.3976909635558945,3.677191173343459,4,0.5,1
5.9625,2.4914822334215017,1.6821220602012097,1.8413459894036943,2.3382327437792694,3.8780286563850797,6.20730771738321,8.98420484397397,4.0871575686585455,2.8210335501580817,1.1371438294745055,1.4727550784459302,2.7200005743357876,3.245025938334803,4.742135560699968,9.793883364656196,6.573554968433862,6,0.75,1
6.0625,3.8540235095051276,2.58555198688574,2.328653547864285,3.1798562269101973,5.376214375866053,9.206612802878615,9.352643881770213,5.300318918650698,5.8403008226048225,3.0150030529088947,2.509142466928956,4.391325316657614,5.105885504687887,8.052743244644779,10.30837796318257,9.135802791645652,7,0.875,1
6.1625,5.1113131305870425,3.3740213553889595,3.2104249958752233,3.9310420507249226,6.7556657076841375,11.080109399675132,8.407358245541301,6.716281281989947,8.941241359966233,4.759179980744144,4.238810521820231,6.180096272245906,6.916341303557984,10.427867389885527,9.122272360767887,12.434324372860251,8,1.0,1
6.2625,4.727422175628912,3.094016260604052,3.1976137608797117,3.540371912483488,5.793183467447523,9.140373110861843,7.317833766214152,6.45813088448938,7.9124933807513695,4.0782441280916615,4.259869617266247,5.258535440834448,5.318008464024198,7.744691332388361,7.677548176113014,11.802895559567208,8,1.0,1
6.3625,2.676257197993989,1.8926900797151682,1.8395455198522304,2.2031413699254108,2.6614759689508114,4.720838447546369,5.210061401815764,4.020357081175924,2.4172941454922716,1.6219194036753075,1.106719172558009,2.0426171788622067,1.1995090240145472,2.9469343910658305,4.5076728179271655,5.1958144613313335,4,0.5,1
6.4625,0.7756688697973501,1.1096135440635049,0.843101232871219,1.0298867907619258,0.8573282598639363,2.098720402242942,2.5962180607623973,1.3112322838194241,-1.3108274746373845,0.10983197307649631,-0.6302595764643149,-0.3130369895590823,-0.7704514335497185,0.16004128055813688,1.2641949539725834,-0.05301819886193281,0,0.0,0
6.5625,0.5289613295305691,0.70201958136171,0.8187039922136199,0.5928871880108297,0.4236460071280653,0.7191544288892873,1.8544842111948872,0.9560405346333981,-1.6064793797443846,-0.7190039926541228,-0.6081906969204803,-1.234981811848091,-1.2048155557801132,-1.0940008290317766,0.5304702987617609,-0.4636693048592114,0,0.0,0
6.6625,0.9885057825009299,0.47957148556541146,0.7483286145847803,0.5559789916906264,0.34226757150618414,0.5449033359461182,1.6735692090918237,1.0040992450069435,-0.6400967991020485,-1.1270102104006714,-0.7668737956461251,-1.319488255018327,-1.318548441324041,-1.2302221910902076,0.2407278369991697,-0.325127458758551,0,0.0,0
6.7625,1.3140894280920883,0.4180117236581982,0.5375660457275462,0.6018675887887759,0.5565667701574591,0.7270454409370205,1.3752077828543388,0.7359589167932936,0.19823181155869762,-1.247730031193048,-1.22025573631293,-1.2260507580778508,-1.1183905201221789,-1.039863551043531,-0.04712647083856481,-0.9411997106538368,0,0.0,0
6.8625,1.0648506593512197,0.6375415362227259,0.4706143732122564,0.43679323140910237,0.9537615383337871,0.812153589676826,1.1701425357600772,0.7610777238070456,-0.524573515810645,-0.8859098079136838,-1.3465513767078656,-1.6115145225950627,-0.5551885059525143,-0.9487819694558651,-0.4326342780413404,-0.911148031183938,0,0.0,0
6.9625,0.5066314883864058,0.8251329061230008,0.5708052943654182,0.4526527739512687,0.9443937448637484,0.6267125484775222,0.4916444042563698,0.9221641122488919,-1.6596898810429541,-0.4212495130116696,-1.1341041078823348,-1.5449617349235658,-0.5529917102390812,-1.1848254740097943,-1.2170791404882786,-0.5139946307715637,0,0.0,0
7.0625,0.5349737809655501,0.7851638072391169,0.5789722018396367,0.46779258489571945,1.0018188426336851,0.6831656112119553,0.6467065937683678,1.1031939920850025,-1.6154696552408228,-0.5013079862324937,-1.1165549515019746,-1.4884511623724377,-0.5033165169270041,-1.1220519054393332,-1.0310237777879987,-0.14910524118290044,0,0.0,0
7.1625,1.3666801279452108,1.5172004260615999,0.948146040648793,0.5995234535727576,1.0674870974053718,1.2845798781018194,0.9148092263331938,1.893878028469384,-0.02813144969232879,0.6604184618132348,-0.5372394545463233,-1.2650367164383483,-0.3932933971715483,-0.5431859224637157,-0.6600279859583692,1.4348706869233903,0,0.0,0
7.2625,2.713262406203709,2.9276606747960403,2.344431600731072,2.086486833516226,3.0330639498488527,5.63607512447392,6.208164505096609,3.884203167857881,3.133315782218044,3.5912975234662405,2.0418312396523057,1.2461376019394144,1.2837720585954304,3.0878256542883324,3.8976480361833477,5.492715168504799,6,0.75,1
7.3625,4.801252884631689,5.871885161409254,6.064918808234435,4.941774983604396,5.726323967068951,8.658511143650642,12.653114714612407,7.409824805140641,7.935009742755463,9.167486746718529,9.159695518938245,7.5607911327652095,5.285508595766508,7.5025411940149445,13.473309078696504,13.209788718894924,8,1.0,1
7.4625,5.193398522268293,6.474101725558852,7.158954934534746,5.709783193643016,6.786204113147602,9.1190509105589,13.222756599348878,8.072327312369712,9.046374785009835,10.638497649805663,12.340332661114065,10.143732633728126,7.200808183962972,8.275308169985609,14.836377697491546,15.062743028105428,8,1.0,1
7.5625,3.834755269792261,4.261582812969897,4.806541412474374,4.014855312399972,5.75606736846031,7.7921546647233,9.385758923886085,5.889975243314883,5.942625805134843,6.030224559512402,6.9166886635215645,6.078559513558337,5.675451305540796,6.732568337163165,10.05748158780486,10.263765973191619,8,1.0,1
7.6625,2.8496720299997302,2.432016339681273,2.0876893107785,2.344718062668146,4.068902736787533,6.799764348272703,8.722101263472847,4.782534062524641,3.7825303384796047,2.725402338240903,1.5369115753124993,2.6053889717512466,3.4633721808016507,5.696130168074975,9.29126628925088,8.10136818939259,6,0.75,1
7.7625,1.9224739732806464,1.461746570910557,0.871279326497779,1.6291827688178444,2.675627829503774,5.264160545803784,6.613526503445549,3.390849234576709,1.3084275917497112,0.6747899642204837,-0.591129920856345,1.128613590313131,1.612199374638345,3.3690506003424874,5.390018288040146,3.8700266992065067,3,0.375,0
7.8625,0.9170360637757189,0.9554145657976326,0.768149944504387,1.3442346657666566,1.7316749670874259,1.9327100282075909,1.8965425173055597,1.1381077484901838,-0.8357543675944218,-0.1374716081846311,-0.7289014268831459,0.5046729637788663,0.48073177801429623,-0.12963549388060716,0.4112770689617589,-0.09657032839734642,0,0.0,0
7.9625,0.6493222657276867,0.8752114881567374,0.6589534792373055,1.13025316921919,1.3100584634216768,0.5342680396905855,0.9765650164965132,0.9019559429830706,-1.3014078134983336,-0.32223906350054743,-0.9671143167798242,0.005689596098327755,-0.14570294732222763,-1.288057598138728,-0.5562412263204451,-0.5483264427212583,0,0.0,0
8.0625,0.7909794800023703,0.6502343327895554,0.5831470485014862,0.7459509283594972,0.8734951166352557,0.32506451581871265,0.7266185242069523,0.5957898979368255,-1.0122067370089816,-0.7733650133018236,-1.1022596306523733,-1.0626043957715325,-0.6144960045010934,-1.4746409246951577,-0.8584497663581583,-1.3470516566849584,0,0.0,0
8.162500000000001,0.6887006470699897,0.5627578338425728,0.538065442823953,0.42185137438583764,0.7761001524137726,0.30882068266463564,0.647060594950511,0.45817066542244,-1.3257753281205604,-0.944100128790015,-1.2191495293831986,-1.617994153605334,-0.7503545053305484,-1.490005649946735,-0.9659151589773769,-1.5917040821470092,0,0.0,0
8.2625,0.4394618595557111,0.62240042009159,0.3936987648880894,0.4536532611917351,0.7805223018055067,0.3134069041759654,0.6116703146391367,0.5700498410227095,-1.7799589232960866,-0.8365401871262915,-1.5124626900462952,-1.512003684323724,-0.7495426497065084,-1.4842680115293618,-1.0029171074693861,-1.2831263955485972,0,0.0,0
8.3625,0.5334086484814365,0.7507832950652902,0.38144504866267276,0.45266016113254554,0.9099093386207667,0.3353604531183727,0.48515951862896,0.8561654515265967,-1.564932725673714,-0.5796365444808204,-1.5400413794891086,-1.5111145816535845,-0.5732543818068838,-1.4620196814383621,-1.1832604021283553,-0.7293046708661302,0,0.0,0
8.462499999999999,0.6398773545743841,0.7333535996787747,0.533767214453998,0.6391857729155019,0.7210321700141322,0.4731283946230591,0.41185937161941943,0.9452442542019357,-1.3178542020570847,-0.6073817814273933,-1.2400463427496013,-1.1053038171244833,-0.8891716456219894,-1.3191678084097413,-1.2596554602904937,-0.48791276121679933,0,0.0,0
8.5625,0.653910984637776,0.6132225669385689,0.6392914480900181,0.6421079291171182,0.5707737288404695,0.4838613385196373,0.5207129784428993,0.6400146492194259,-1.2815259650513324,-0.8384404677432823,-0.9815619803592834,-1.108497999872976,-1.0539036742371317,-1.308773490159748,-1.1148960256203342,-1.2190917076059566,0,0.0,0
8.662500000000001,0.7722887147054984,0.7684527548243213,0.6336576335038282,0.44194246632686035,0.8875587550718335,0.42200351022401794,0.7911417965109264,0.49027042400711546,-1.0334619814925217,-0.5595082603349448,-0.9941217947558638,-1.551731153763719,-0.6275815375468567,-1.3707758454572374,-0.8005769398061555,-1.5040591874128117,0,0.0,0
8.7625,0.7501561225574265,0.8319950390118286,0.5405736813772337,0.506749254916975,1.1859638426121273,0.805937067423492,0.8793143110438623,0.9853213168171249,-1.1169543402306907,-0.4094084049575955,-1.2096771463199278,-1.4162289235678507,-0.20692781298648455,-1.039545869829952,-0.6713923628758203,-0.5291299162948573,0,0.0,0
8.8625,0.506900987640386,0.7258849061533105,0.6433235608998078,0.47982587565074153,1.192920109238171,1.7358046331641959,0.7270427722662255,1.2090458747485093,-1.6505532678395343,-0.6618925928851744,-1.0375405233879207,-1.520326236161665,-0.19852188692797815,-0.06090234461011659,-0.8680564357423712,0.14585565114656363,0,0.0,0
8.962499999999999,0.6420468558282867,1.1660469891492204,0.9755227529182942,0.8285842866721834,1.3098388025264829,1.9555178491099283,0.93659876448287,1.0915963892488456,-1.3879320231647743,0.11922714213468048,-0.3115701102435315,-1.0799309675827349,-0.09605167286695511,0.2903059802264809,-0.6303381717679596,-0.12581045545433983,0,0.0,0
9.0625,1.3640124523751025,1.5428362847346213,1.3554336330400771,1.4730820678208862,1.540952809924899,1.6804151404205092,1.8138627642332394,1.4448639588472787,0.1411223528225388,1.0759487252474655,0.5047580420284413,0.5733833526250153,0.20452948653228184,0.013990453551564586,0.43490099117957476,0.5772473092955841,0,0.0,0
9.162500000000001,1.7929104399396874,1.7730278088995053,1.7416954153987794,2.1894493454433306,1.8851891744271672,2.797748429327342,2.765314312003385,2.0598613983493603,1.3773346430143574,1.5292045782712984,1.3264517283375494,2.2224066573082957,0.5629200131901534,1.0232149180717058,1.747399896521268,1.9783373775300783,0,0.0,0
9.2625,1.992028990890216,1.8398423785796674,2.370273704830256,3.1827926021786257,4.078620849924762,5.681985108767212,2.9952661834592442,2.873741173092432,1.8365502236565225,1.678841541598883,2.595217537298508,4.445428429927356,3.037120516810354,4.014926454841024,2.0493445460314637,3.7706210383026426,4,0.5,1
9.3625,2.4759553962485814,2.3043784175241893,2.6654075007124947,3.5087415711499297,5.4368523942310745,7.342093794007157,2.496085908620692,3.139706405283736,2.749045264419966,2.476220844662512,3.309440937193675,5.373641401579465,5.305467250100761,6.200174436637641,1.369371719353205,4.493081976391743,6,0.75,1
9.462499999999999,4.695565937520009,3.6394283931254843,3.119449089093301,3.5148685500979218,4.531272666028083,5.948863514202936,4.006823726667681,4.49958200902158,7.243780494295288,5.142141520689287,4.1727375244789275,5.375522860527721,3.9784762792688513,4.394662562489999,2.9231798463711938,7.07136114724122,8,1.0,1
9.5625,4.655585663417719,3.702470584496988,3.341787165546129,3.6299288723639016,4.569253325412178,6.186066568438495,5.435876906977188,4.553481686633407,7.211741050865319,5.355980285885097,4.717555521834011,5.630624471236894,3.939878826452011,4.456366750425478,5.209572371894593,7.2178625274737565,8,1.0,1
9.662500000000001,2.4166659806439554,2.7534847095174517,2.86536724342443,3.407569034770129,5.760029452468327,7.76407537137422,4.674494719747926,2.822348689334509,2.7487140458292805,3.5149148886643697,3.7227020878575026,5.052505907397971,5.591483712293379,6.311833459897043,4.0774518248325755,3.7182091965122153,8,1.0,1
9.7625,1.9722307140838504,2.4335947385850076,2.2825539293065362,2.5304835839727473,4.57922328415394,6.00546141545287,2.8706643458758325,2.417623382855123,1.7614782772978252,2.8626359232288694,2.429829017610953,2.7026610363362567,3.7380189251809735,4.176255641631218,1.7594629006900393,2.8919209812132154,4,0.5,1
9.8625,1.638904837632618,2.1879611096894944,1.5686511350885077,1.3113321857589078,2.6589238681205996,4.249582474146067,1.9552381935150336,2.289814266638612,1.0050483849416674,2.367529221559262,0.8720961261220076,0.3839080900664557,1.7329921333858866,2.839647916451098,0.7326950550430119,2.6077500604995714,1,0.125,0
9.962499999999999,1.2900511132403805,1.5583240489791692,1.0846147261029788,1.0878065113187794,2.3912766083571246,4.190847097002361,1.8933848616657365,2.134033433293436,0.1219511995592813,0.6609709613856418,-0.0815405419284478,-0.0756223386224146,1.3476585552381117,2.767045636703781,0.6695532860409394,2.1969356993636837,1,0.125,0
10.0625,0.9638888179306797,0.6029835785154571,0.8043295842484133,0.9356057581780913,1.7450784860432997,2.827511897301138,1.5724856947434362,1.4481698274788481,-0.5649486038383684,-0.9606153148205849,-0.6883957239969076,-0.4174063339201415,0.4887944723206478,1.1135988301307977,0.15446710290002114,0.08385433767739707,0,0.0,0
10.162500000000001,0.7032553543130015,0.627738403493088,0.5171645878749279,0.8441255506409202,1.1732849591324686,1.5634306562889935,0.8601139826242172,0.4855774689057932,-1.3730798491289042,-0.859627310335599,-1.263381721787075,-0.6140612588588542,-0.27451843430429823,-0.2279532297402583,-0.73336947926785,-1.618423547681424,0,0.0,0
10.2625,0.3417368512988173,0.5575010524426673,0.3839026384997602,0.6799167643160373,0.6672932138114476,0.973508169365417,0.4879237626949719,0.6090927596809508,-2.0599935226033597,-1.0592500585433262,-1.5349860000782187,-1.0739221104409726,-0.9639343298962011,-0.7908176077578483,-1.1919827395322893,-1.277843071495215,0,0.0,0
10.3625,0.659832752210736,0.26749606721234664,0.2571482229395001,0.47289312827524266,0.35753540636009556,0.7751595839743207,0.5643362696799801,0.6795297702881039,-1.4013162677512296,-1.5540562626130359,-1.8418610435082412,-1.466022089446514,-1.304959415909355,-1.0126768184507218,-1.1066935170387167,-1.0477899371469037,0,0.0,0
10.462499999999999,0.9151189488366865,0.4020952784960269,0.35647194690128653,0.5838091401354794,0.7210246275497203,1.8265428226018325,1.0173932215659416,0.7590380966754093,-0.6826532559049775,-1.3360751709333214,-1.725803104324071,-1.2256258655041439,-0.92570921699707,-0.11393606336446008,-0.5315343042778357,-0.871945693782471,0,0.0,0
10.5625,1.4011150402467187,1.235221794164285,1.0142036563209715,1.3765874809760454,2.597729284261219,4.411670482569013,3.143371307619162,1.8595758561031845,0.1040473000304052,0.022775519093652115,-0.510301334870836,0.16320173415422373,1.003426815902991,2.4230842827828614,1.5522475091269792,0.8604297820006747,2,0.25,0
10.662500000000001,3.2449229878336325,2.4787460037991265,2.402765978584373,2.8711731853180216,5.908468279207327,9.93445102244799,7.12269084077685,4.1461859928162665,3.928650843776927,2.6763151344738327,2.3262556887834314,3.5113648126502817,5.36862015096725,8.213664620738612,6.681380881796453,5.86429000465488,7,0.875,1
10.7625,4.181819380716778,3.780646546346989,3.808988701433995,4.0252617474580745,7.973040175212234,12.397651204878397,8.944695555008487,4.789740094690457,6.869808499553118,5.512175089242365,5.618684871442007,6.495227362023123,8.746328317514019,11.925852879659603,9.705706793425534,8.051363156506563,8,1.0,1
10.8625,6.030954702552902,5.15439762779897,5.106093872088649,4.387254524734058,8.650857468596078,13.15584443218741,11.801600311561351,6.6136895098061155,10.597801624125482,8.324074064405075,8.403659692978215,7.359125292473462,9.65285141662254,12.66867614600651,12.931198892767032,11.472761033860163,8,1.0,1
10.962499999999999,5.7290792792944805,4.432296280332451,4.583178628369131,3.4487125382910655,7.423011671372925,11.594759468542586,11.439277706684297,6.674851718544758,9.346524364326639,6.029071841732258,6.825592907274206,4.708479607251359,7.704709763362811,10.471311907936453,12.382377723414795,11.679944903648156,8,1.0,1
11.0625,2.4187147366648105,1.8051786390141407,2.4429099784049653,1.7449320943027844,4.349138731915401,5.999242754721648,6.346258437660576,3.370494056331203,2.2539733162775892,1.1987913447401148,2.48559588781165,1.13678251702523,3.586682856686485,3.9316402683051903,6.07576246261965,4.341883009032002,5,0.625,1
11.162500000000001,1.1644498362669364,1.4389501608923048,1.3757175088212432,1.2037449519457761,2.3803125568770818,2.304189463702649,3.4911584535841045,1.473082138646425,-0.17041432631933678,0.7996042265112832,0.4651092309111966,0.137971972844563,1.2852051628606533,0.6239780054756973,2.2603415588462883,0.5545903237739435,1,0.125,0
11.2625,0.8194451057731968,1.5988860765960113,1.0912825880331711,1.0434005615088473,1.466470858736879,1.6693077743210685,1.5827138848488782,0.7307002043190646,-0.9018718535262263,1.1507143029473093,-0.04307286827120804,-0.3105414102683452,-0.10300742384519733,-0.05694345883314694,0.15331460267010885,-1.0873010285496865,0,0.0,0
11.3625,0.6331117514298763,1.1386515453685686,1.2579280898691088,0.6796011804241432,0.4916978537456843,0.8986938483930431,0.9805875670622829,0.35922872649218945,-1.3666579247770787,-0.00991299020045145,0.32138028769107263,-1.2305632931686272,-1.1654208627661082,-0.9569607002803896,-0.5422278594665252,-1.7696129033372137,0,0.0,0
11.462499999999999,0.5880161766160552,0.58063200569846,1.1142718167214976,0.6641118131764233,0.5128512791761173,0.46009721129164804,0.6835363798153683,0.9720320987216656,-1.5040060991091295,-0.9559998706253997,-0.046953811688060364,-1.1672746073106777,-1.128638999271684,-1.3547881437982483,-0.9438883988306281,-0.7675085732835104,0,0.0,0
11.5625,1.0724304613816127,0.5795693850759621,0.803236104146003,0.7716970896337012,0.8973322204779116,0.7867274835572543,0.638446267302328,1.45525796736119,-0.5083515790238288,-0.9802253306873944,-0.6453386583015821,-0.7932264249243296,-0.6211567807626143,-1.027411564288507,-0.9779737572644132,0.5904270200434297,0,0.0,0
11.662500000000001,1.540610960754905,0.4554377620040591,0.6877877332477749,0.599972430735262,0.9834778794824438,1.0591926760543786,0.8850176432343821,1.2227675396663507,0.7496390515866456,-1.2702537625341233,-0.8935103399697715,-1.1693179971969954,-0.4920588488387125,-0.6666344117251949,-0.6492577715531292,-0.008718328447804008,0,0.0,0
11.7625,1.7497549800855576,0.669380986664965,0.750154276888775,0.44480397169520614,0.7065229763760902,1.0191180447304427,0.9586710856127263,0.956187971989395,1.2742512362345946,-0.9095249071337208,-0.7910168087657512,-1.5346317002439758,-0.8807527490182083,-0.7118979978692235,-0.5425293488274059,-0.4684548367949054,0,0.0,0
11.8625,1.4300655109648646,0.8491387308274594,0.8484881465279095,0.44826894790234073,0.7955363254597504,1.2637507208857917,0.8573651847191139,0.9852464128290409,0.33632249409522247,-0.36999361061264957,-0.5630827429945702,-1.5425744206847194,-0.7847125144945511,-0.474398082705057,-0.6740686625119359,-0.39240810128241305,0,0.0,0
11.962499999999999,0.9038405121002316,0.7795494830421716,0.6709976664011479,0.5220231355651609,1.16128695585092,1.6018643465761455,0.7052458470324793,0.9422150825407004,-0.7251639819363558,-0.5102645246218261,-0.9808250690295924,-1.354136475927959,-0.25700657059611653,-0.05652010819163203,-0.8810270865219239,-0.47325565738092096,0,0.0,0
12.0625,1.1491196915693673,0.9818124872052829,0.9800867586850621,1.0938123746328907,1.7133289879907365,2.5177156735995503,1.2432737401853622,1.0935243916140558,-0.23167423891172428,-0.24218892231862416,-0.6509042849267339,-0.38486042038823404,0.4118945182309695,0.8109413858554326,-0.4065193701466101,-0.14775407377692523,0,0.0,0
12.162500000000001,1.7561740624253945,1.8155354806208515,2.041552873359945,1.6807806014866613,3.062679258890754,4.01423128906892,1.969885448820804,1.769476845337069,1.1532835326576807,1.3428938987945358,1.5812503051779365,1.148127217791684,2.0362947771630457,2.5010155767403712,0.6482236962523273,1.175313457234564,1,0.125,0
12.2625,2.2994358884598443,2.217012002753605,2.723756572514074,2.776625957479531,5.0030307842455795,5.785302547439776,1.8379076858150043,2.565731593398096,2.5214545943611064,2.4446042014626173,3.3341681357286053,3.417223838839385,4.651487194511327,4.494140318813361,0.49000437181614664,3.182954596301416,6,0.75,1
12.3625,4.070532247321977,4.349653785991071,5.447786534020575,5.318975256480264,6.9857665318730255,6.421538342801535,4.545200439934282,3.908053765923434,5.994472860566643,5.898764295560536,8.144834704941118,8.760780350743914,7.305713201350395,5.2699121691803406,2.8631936864005008,5.865489206917446,8,1.0,1
12.462499999999999,5.696632121257052,5.6186434441309165,6.535028087619598,6.450750827751019,9.153809616159656,8.659494887903136,8.435858761387335,5.419954775163122,10.255196514542511,9.298610951131387,11.3588569939013,11.871717156578953,10.158946755264118,7.4349015716639535,8.614610499124048,9.29509368104927,8,1.0,1
12.5625,4.855275681473864,4.396305181978377,4.728320416873639,5.333382201968009,9.552538307010114,11.158725844843895,9.26155933263041,4.575959717909783,7.750862519177274,6.4019060666173315,7.1556259194476715,9.089062806991945,10.697643316908591,10.546414634987284,10.182240128485223,6.731476966518113,8,1.0,1
12.662500000000001,2.637506765752314,2.441311454972044,2.691037998959475,3.27355691649985,6.58195715278205,9.404850659445419,7.54337098572517,3.003164989330525,3.0761528958362554,2.5690734214469053,3.090968134241894,4.060250276912455,5.909673985449715,8.090739687217777,7.948404044535404,4.038816944503296,8,1.0,1
12.7625,2.420793949142069,2.013107568614354,2.0969427863768946,2.1922419487150457,2.876837373640161,5.670599944843261,6.240782182092699,3.7645147416997453,2.7123699182488976,1.8841743431027655,1.96848769878016,2.201531893821952,1.9258724284844757,4.300750882417242,6.2155641696333035,5.8450496302336346,5,0.625,1
12.8625,2.0885759113769424,1.6507457765066602,1.5865332429668264,1.9252127711724187,1.9884240328905003,3.791138714452643,4.243420419884209,3.11400029234081,1.7406057170956126,0.8143803336032133,0.3449725905143929,1.3317618670273494,0.5757882421114933,2.0306280570523345,2.9483484223820438,3.885321841250224,2,0.25,0
12.962499999999999,1.0122089638452316,0.6175687371997607,0.39327547464646473,0.8551051755165314,0.8677506426449371,1.7297175301949457,1.3435211102449478,1.3744862412689631,-0.7166042247058703,-0.8755252663563989,-1.6879479163954239,-0.6270332298272819,-0.6367402097581804,0.009061868381762907,-0.24288390702996207,-0.05549278051994106,0,0.0,0
13.0625,0.5468188370186692,0.6416747563675274,0.7916265803990178,0.6028406472647108,0.7736853111515868,1.3681246765061483,0.6559853470193937,0.6102686064052614,-1.6050913845035304,-0.8134415363011765,-1.0008471561642667,-1.2287505314998857,-0.7494929973441111,-0.3231390586250659,-0.9375473474798492,-1.2468077817444205,0,0.0,0
13.162500000000001,0.9034196340318524,0.9741611818941842,0.9380134044083338,0.3234925203518185,0.6778273610280908,1.3988649272847724,0.9731054042654724,0.8183973706145505,-0.852420107209713,-0.16608186996595817,-0.4388267549116909,-1.8065279659174935,-0.8972847689339443,-0.2814890788887087,-0.6135364995720891,-0.7418561749331971,0,0.0,0
13.2625,1.1106126604974127,0.8861800873774477,0.6187654000096908,0.3281929049238357,0.4020931184620485,1.1497044373464465,1.230421313761341,0.7785892039692517,-0.2172886211996801,-0.47012201302734163,-1.1441537467888447,-1.8078716758192188,-1.2700414423626816,-0.6024897131666682,-0.23318080791407486,-0.832880832701452,0,0.0,0
13.3625,0.973623843832013,0.33933007874928506,0.6808390330296513,0.7673150822553438,0.5542902951308853,0.7706979255537876,0.9864626590231304,0.6836085728668956,-0.545416316107304,-1.5401493174901646,-0.9928112378154244,-0.9579692973132369,-1.1627438947324449,-1.055548297213719,-0.5794105946911489,-1.0302316357718493,0,0.0,0
13.462499999999999,0.8004331905720055,0.3976886781908672,0.7557180208759844,0.9435017285043161,1.0941398295504947,1.2478312113528562,0.9667612360044698,0.6791173166576386,-0.9394647580823516,-1.4400944782559162,-0.7545514971992899,-0.45871972527144933,-0.4316958219524322,-0.6336975732575643,-0.6082318224455932,-1.0543178102341277,0,0.0,0
13.5625,0.6581290721006313,0.6072260385043734,0.5989751780568611,0.7756652017148351,1.5067306512325136,1.8014811083452142,1.6596746560198337,1.0566430834248737,-1.30167480932175,-0.8850385505677164,-1.0772077701885878,-0.8549586013436639,0.20438618612391823,0.14102581018523735,0.26297721992238116,-0.34111464367461153,0,0.0,0
13.662500000000001,2.8803276570767857,1.974969325570651,1.6553865860579937,1.554731999741988,2.452115370886571,2.7809040799830216,3.3456808079148876,2.91186342925369,2.092105258625372,1.0723711918173187,0.4245715556057613,0.41990279886616727,1.269695459084948,0.9051512252495335,1.845105410116404,2.94157549249886,3,0.375,0
13.7625,5.508063523317642,3.9451597720305225,3.44864207565545,3.2565735395676314,5.610300162404839,9.000481240956063,10.697133378614822,7.673504298052803,9.23882215421136,5.400315358085363,4.408861183527149,4.300623908694352,4.977065807630035,6.552503132138753,9.87193458889477,12.755162780190942,8,1.0,1
13.8625,5.721430047366419,4.187283323608043,3.8099734073419196,3.943182084713359,8.116594945033075,14.391725824849773,14.412777562976773,9.812374288906705,10.289554949913652,6.365564254164152,5.646935016055021,6.254475207800983,8.800982155867256,13.839728463681798,16.842149867980865,19.405599053302026,8,1.0,1
13.962499999999999,4.487257296374834,3.5345504251390523,3.353158580073825,4.103667607932335,8.756138043981792,14.901514457159747,12.9017038626967,8.032167229510973,7.618293073466629,5.170487884169955,4.761466382016385,6.511756242309416,9.644937157424243,14.240199687575453,14.5675672682285,15.03425460708505,8,1.0,1
14.0625,4.137334935318666,3.2541867673143647,3.1799123047171336,3.7329513444242406,8.185762592192459,11.872527792025316,9.715912197985613,5.702304425196414,6.810746890865771,4.526479506923764,4.369027709728232,5.624026752042672,8.908247214349768,10.73259510504263,10.209572730500739,10.110626865609117,8,1.0,1
14.162500000000001,3.7772616146731153,3.056933261943533,3.0611697162011837,3.3456850896179957,7.308323634783319,11.754821034192364,10.23632562757773,5.875742634035162,5.949430299640826,4.0829851255300955,3.998996763788766,4.822221352830091,7.860174925677309,10.987041190663769,11.05176854480485,10.575116952952106,8,1.0,1
14.2625,4.487016109362452,4.2841240868720005,4.666651410523358,4.8171165185258955,7.304309451779703,12.079109168816174,9.332219285537098,6.1526715911951335,7.45442151910372,6.420774793004057,7.047946277736034,7.950139078739571,7.87673882996384,11.513060738413808,9.217946233328343,11.26045269749684,8,1.0,1
14.3625,4.003413057959268,3.897430213424391,4.555376166252436,4.711958474391412,6.9406741527023845,9.281353028526704,4.4318542765453754,4.483215336191043,5.7517911865174405,5.233092121687917,6.72202145884445,7.6245855838247465,7.210744845072553,8.207748422814742,3.7251704262224767,6.842986465680483,8,1.0,1
14.462499999999999,1.6586249943303886,1.6011450507608354,2.165999685101324,2.632846052566289,4.471574699241307,5.448193743867152,2.8657594419754826,2.001155401991395,0.17939650295777343,0.532233430493829,1.549318359365152,2.789909506657786,3.1122155890486454,3.2581629227271107,1.6309816729903903,1.0470418972580746,3,0.375,0
14.5625,0.4298842160567882,0.5048914520429093,0.7061149779421171,1.3111735642530697,1.3788525352251502,1.5332035633670593,1.5324388016205244,0.5845205232065331,-1.9645273243664403,-1.1715603735034508,-1.0421515262987429,0.4174951713615429,0.0002593973972009708,-0.4795061083705621,0.17802992679381022,-1.4021609677023736,0,0.0,0
14.662500000000001,0.5494707396019664,0.6904284923554739,0.5114609860927367,1.0111366469703367,1.06691856646058,0.5957108799779326,1.2401145032690926,0.5576601622446506,-1.631609980139766,-0.7679018887266851,-1.290920833591247,-0.3133793773670632,-0.3722154576234676,-1.1733464891120162,-0.21711733013960224,-1.34516415771366,0,0.0,0
14.7625,0.6083661110697456,0.8050556642591931,0.9134237747987504,0.7833573897403322,0.7609453858259881,0.5911259574345599,0.7685448747053655,0.4513043806725519,-1.4205633908434518,-0.47692184370177293,-0.4936831405107857,-0.7516378969811438,-0.7883000951062903,-1.1772854785413056,-0.8520454243761857,-1.631031129469087,0,0.0,0
14.8625,0.7358092135439587,0.8795658989255111,1.0385156964855846,0.9406903552355892,0.5996198591171797,0.6790737318512843,0.5260019921676977,0.3614472809825835,-1.1497718477591148,-0.34029959633916457,-0.21326791682325313,-0.4130666988966407,-0.9803080209339576,-1.098512377070647,-1.1268337016639476,-1.800675396628925,0,0.0,0
14.962499999999999,0.7888060803786476,0.9986622476195856,0.6848643276427534,0.9725328289165746,0.5479555351311716,0.7679571254225344,0.5749134772562063,0.4862786560919443,-0.9812710725074857,-0.08713545732646381,-1.1269435932776777,-0.34644766346639705,-1.0502818174480186,-0.9922919869863531,-1.0663368818474475,-1.4899620215365033,0,0.0,0
15.0625,0.774763673094106,1.166821990629224,0.6490018799667997,1.037196152758151,0.7253099442399432,0.7633570025131152,0.9431062015571894,0.6213928680358561,-1.0086128323623402,0.25563665670024305,-1.175898397033114,-0.21332669805948398,-0.8563090947028806,-0.9989399236296944,-0.7042358486083721,-1.2017828675007358,0,0.0,0
15.162500000000001,1.6693311504017734,1.5378465451559902,1.1202680302123227,1.2895095334786695,2.094192715066692,3.263733414827996,3.519730231038815,2.0169776987744332,0.5532993197246086,0.9649115405856518,-0.0621584437799913,0.32365525432959147,0.561154551901811,0.9110905926334951,1.7930491317521,1.015440229841657,1,0.125,0
15.2625,3.838124346380107,2.669211804815697,2.059514268482552,1.7319019531594386,3.573293040389831,5.928278297029812,7.636078023043488,4.7884319869935785,5.315285130347488,3.0349841192020235,1.7340758654267712,1.2765502656881045,2.7361319785071654,4.409434831937607,7.363515292479916,7.210083311412673,6,0.75,1
15.3625,5.980402877494953,4.4780618453186305,3.5399915185895443,2.5249971796308115,5.339049858578888,7.988937547356925,8.456119980517352,6.929487992696945,10.864259138651741,6.834621080758735,4.8919729077663225,2.9580116649000456,5.063457029368284,7.000383743720046,9.02352915407423,12.873768115246367,8,1.0,1
15.462499999999999,7.115367194583863,4.419102355044448,3.803569981196154,3.1031449439095655,5.8455960796755475,7.362995224272746,6.214329138571562,7.829649705898596,13.586843761998988,6.614864451495817,5.663759951374973,4.229918870784519,5.630228083605523,5.997864895936095,6.097314620552387,14.636562485729492,8,1.0,1
15.5625,5.907029178932296,3.0158995555201487,3.531102267918047,3.7580504259742176,6.574299787800183,7.06793934165639,6.208054879081186,6.015331161562291,10.250011112345184,3.96771430401362,5.137897293906697,5.572609798928024,6.2455239247026135,5.370855736182542,5.875501880404962,9.145981203728608,8,1.0,1
15.662500000000001,5.184054933526607,3.619922028871088,3.992712561471215,5.51058523337507,9.61450219588342,12.052068105765654,8.58433258532834,5.512004654380929,8.941677636095898,5.136437011177881,6.0817633831731905,9.34571771379435,10.191728450273043,10.571565335222095,8.789222474028845,8.589096546630886,8,1.0,1
15.7625,4.65903172402449,3.238141356562966,3.2743748092465395,4.982754122668113,8.28550721211648,10.852828286721923,7.122763340487859,5.5330140407666875,6.622817023590937,3.9161341190667622,4.149131968038563,7.562071104555348,7.522668978803515,8.191239326095259,5.521071416486435,8.43475436975764,8,1.0,1
15.8625,1.7858426355095631,1.470082933603393,1.6989955904753502,1.8814713656672972,2.6733177150579026,3.0973233679348677,2.2581790499555168,2.1961556716969524,0.7318843823876807,0.8269682068652874,1.1796897338938732,0.9232216312498983,1.5859750297467172,1.2661573137806612,0.8576491489783455,1.6883099997939,0,0.0,0
15.9625,1.1101720690562826,1.2760298698584673,1.06618514481027,0.7103015379289686,1.6918827259027807,1.9461254467470954,2.6963718118896396,1.1609259919943955,-0.2705625033537794,0.5089102772345784,-0.26095614485450525,-1.055919862050143,0.35552194089527583,0.3144646854574912,1.6355428847739393,0.03846454482639479,0,0.0,0
16.0625,0.8420063660015484,0.9914320077907577,0.6571954303560179,0.8027518228085425,1.0944811096212177,1.358790391964371,2.1601204876711564,0.9884156253602377,-0.991528142260755,-0.3046881380371706,-0.9531736780691317,-0.7781786825892685,-0.3328996923919331,-0.42269830695227084,0.7327196063153508,-0.339707004868847,0,0.0,0
16.1625,0.7855335016302762,0.8120978539586257,0.749002396639223,0.8230249437376578,0.9892351646537182,1.2557920039987411,1.0844051664468557,1.046200771890227,-1.1175250583122092,-0.6442047673699262,-0.7534711440007094,-0.6993086822111745,-0.4717802489239713,-0.5254844319519383,-0.4497176346679137,-0.21419276120641,0,0.0,0
16.2625,0.9888296493620936,1.0424828851756014,0.7195265117272359,0.8718423405923118,0.9155733837972162,1.695801111715947,1.189343649276051,1.0115833803635015,-0.5610622419780528,-0.07932682463871796,-0.8211857866631087,-0.5971924593012773,-0.5647383595740592,0.028710359659435324,-0.28038234542663004,-0.32685062227515455,0,0.0,0
16.3625,1.473043004621541,0.8001182539995892,0.6713064221779074,0.9089910882839357,1.0512802005478539,2.1236494214705246,1.547155225134345,1.1062335683085556,0.43694338358273266,-0.6285432107426682,-0.9492361067949198,-0.48799246100773325,-0.4198064248780616,0.5041857263897876,0.19686957819444637,-0.17193714970573964,0,0.0,0
16.4625,1.4362250573437938,0.7247373657347115,1.072754505934229,0.8633353645532885,1.694198363603612,3.0354433403910144,2.073257712376131,1.2792040833602534,0.17397788159853483,-0.7424205980000974,-0.19442018313215126,-0.5733655875466683,0.3551349790562757,1.305430041171589,0.7671967748437208,0.25266065580389,0,0.0,0
16.5625,1.7153156785735573,2.0538414857771277,2.4586907257304524,1.583843512478143,2.5426012794326125,4.6839442908682285,3.823431784683962,2.442931800055231,0.4347312676204062,1.5552093242882286,2.3811431285040325,0.6996680423469567,1.5044861713827817,2.9773426473405245,2.8078076701491397,2.408554630515636,2,0.25,0
16.6625,3.6301128382492536,2.4775687421422377,2.9577789602615097,2.5432945173553976,2.8479528503046123,4.857840766881095,4.888729673249164,3.0188584196998405,4.9367234785107295,2.740375434275119,3.6959382391246622,3.0502649539540188,1.9092955942026182,3.3080720367619687,4.500940828401059,4.206576914275551,8,1.0,1
16.7625,4.091650753966618,1.7201273571477902,2.0805177725405852,2.8368655697059557,5.368248691581714,7.1768489958119375,8.304716499866588,3.314935174887469,6.589127724918382,1.1103296610712057,1.6763446557860922,3.8587864915964776,4.613903004418028,5.466131974410663,8.211352003433946,4.839542551120428,6,0.75,1
16.8625,2.646042591976887,1.480209397887741,1.636658477097466,2.4739612475558737,6.371427422489342,8.82172082346336,9.525504587306157,3.6448538718846386,2.6786295098012753,0.8500469660731145,0.9897630682708519,3.00948539823543,6.522172573845792,7.879719523506707,10.236650845349558,5.667523403196736,6,0.75,1
16.9625,1.676215258520102,1.486595118186582,2.0112886913791304,1.904622082641946,4.2334154080896,6.38309677219589,6.226258194518968,3.0724571782386536,0.8451714421040275,0.877166422174998,1.8647062939352241,1.6570460972386882,3.211837543787,4.681011533534566,5.360500719626534,4.282652332595692,4,0.5,1
17.0625,2.2067613099277117,1.0010657551656752,1.7905845908633276,1.3767656984461751,1.9972937956907435,3.160381565645968,2.870177786219133,2.3174607861086445,2.161237565439504,-0.0643124822253934,1.4012468359414196,0.46952479296690924,0.7173506702297833,1.6144422446772102,1.878876210207074,2.525068430068758,0,0.0,0
17.1625,2.0481293792042683,1.0277075366125246,1.2949566067498943,1.2806397502793365,1.7396005316995466,2.5961942862423975,2.522084115495638,1.6360686122056345,1.8328255517595644,-0.009478778746702294,0.34624745227097803,0.3107339992578186,0.45252059109897225,1.0249885733497583,1.476146035391143,0.8327802357288837,0,0.0,0
17.2625,1.3658045383921193,1.0502480745627265,0.8369455538616323,1.164054993606928,1.2572690787191987,1.9022166581047457,2.0658370835716,1.0750683440074102,0.31329565975295454,0.041660025273951885,-0.697438618671864,0.020318696196461497,-0.3114877170390012,0.06082542790533209,0.7997401751102337,-0.1408982909582549,0,0.0,0
17.3625,0.9651767173788963,0.7866046781314268,0.4476876942266302,0.8415182528472669,0.5809820666141319,1.072032021459205,1.1521368242916388,0.8592879195395066,-0.5957964648514839,-0.5221658696911049,-1.41640279886282,-0.6353938379169761,-0.9985480941332647,-0.6549525477566743,-0.520540938103177,-0.78268350410305,0,0.0,0
17.4625,0.7550098243784674,0.5476587841298591,0.5863812116612512,0.6196971631190501,0.7792146375565335,0.913470995049403,0.5711057003412092,0.6518313261508923,-1.0422659087520536,-0.9986038451986606,-1.172890383818116,-1.2379473553841296,-0.7831428604657263,-0.8987141737152732,-1.1568799425595506,-1.1561960559232554,0,0.0,0
17.5625,0.7491848960552822,0.5221834795381016,0.7603259819761294,0.4778639991621489,1.254514381823336,0.4333673529279356,1.4691975731531224,0.7135012201883842,-1.0560786938580085,-1.0342601146234787,-0.7413682614729633,-1.4839952282203879,-0.16469173479077273,-1.3711637412482254,-0.1534025530110703,-0.9703963813086379,0,0.0,0
17.6625,0.6672376349043408,0.5968385644694372,1.0175255914169705,0.5691934706986277,1.2769677918872893,0.717766110262073,1.6381354559470591,0.8830780823205938,-1.3026040266732966,-0.8706150896172875,-0.2411599007195525,-1.2554663730367235,-0.11497119483165312,-1.163786184589991,0.278386258306121,-0.6520211577205824,0,0.0,0
17.7625,0.7577841813940704,0.953035667431992,1.211759679719182,0.8833835322775676,0.9276841218658926,1.8092962641497816,1.4726386166523446,1.5090598885776214,-1.2573685755371593,-0.2910394395264463,0.1826767529807558,-0.7378045116163121,-0.5739515293387987,-0.043485682065444745,0.04862272808029676,0.6939693523490078,0,0.0,0
17.8625,2.5479061014084508,2.4121187800831505,2.563527308039163,2.143001379756834,2.4820605014506434,3.5364295898843463,5.655119559543621,3.969248101504699,2.0869887171289703,2.2646700194820157,2.4388449920303192,1.7387787378126642,0.9376457517035393,1.910475520565619,3.8877938843758333,5.175639737230332,4,0.5,1
17.9625,6.122888962344553,4.687332959486586,4.0170539966374275,4.293328133669509,5.740105347355473,5.939062674890761,13.954469127447544,9.465134890354824,10.31521197734909,7.059684819193036,6.010364843040767,6.599960430410675,5.186778642846406,4.493370803105753,14.57234522382024,16.939384932182747,8,1.0,1
18.0625,6.399799407281549,5.136905461822374,4.265907963689914,5.348984019550756,8.139323870586933,9.030578483235075,14.692701298431945,9.47028767689748,11.153068676434062,8.311386444443931,6.696697327624275,9.494441416536752,8.859614401244306,7.942011077179559,16.461968020843102,16.79749556527588,8,1.0,1
18.1625,4.09878337362711,4.472548609267368,4.403895404891908,4.861543472655368,7.837573453390614,9.964103023571525,9.550740409646643,4.438712834337274,6.290763104525012,6.937598476627286,6.949774828642213,8.36826201183006,8.409516618980557,9.220029244800303,10.488947417119425,6.681787240061848,8,1.0,1
18.2625,3.657317068507403,4.896276850770669,5.2732625786562135,4.445384767804632,6.073582002256208,9.19526265357744,7.6766063446739965,4.600842439631293,5.476940557352241,7.785182610970093,8.785496032346847,7.484158088554507,6.087717616164009,8.35126014437744,8.004183487047557,7.459033202267809,8,1.0,1
18.3625,2.7865762577657245,3.9100571265366213,4.479295219124136,4.007591154756481,5.187845721409996,7.877903154229791,6.065234766694758,4.960391921073917,3.272724909188591,5.000372502140253,6.489363785535,6.3226120026241315,4.983091534123473,6.654256814613502,6.07881394375824,8.500330539871332,8,1.0,1
18.4625,1.632536009780303,1.3986415957119236,2.097023364156313,2.564095350806415,3.8148766996753607,4.890213165767621,4.904093232959135,3.2246873754042453,0.963403760375329,0.24366173976257058,1.574437216871973,2.5435042425636745,2.7827817711691143,2.8750370815658015,4.230772143284705,3.914405870892803,5,0.625,1
18.5625,1.1572219011785057,0.5166100289819552,0.9024177037913822,0.9306182564746123,1.6056649375607885,1.7789406279850608,2.6248914114305673,1.2334180962456711,-0.20364517758745573,-1.1048398532169232,-0.5791987428795574,-0.7519506932978558,0.10916764227503384,-0.3861070151171807,0.8033076762443626,-0.3121326066855643,0,0.0,0
18.6625,0.7566290252793739,0.8190150051180219,0.5144694492843865,0.34371023505294546,0.7015242732959973,0.49127208667794475,0.6898847310521313,0.8395791825273116,-1.05324929419613,-0.550095924847048,-1.2820547430252844,-1.7633948054547621,-0.8971257545325415,-1.3065945681742428,-0.92061722933889,-0.8353272916804251,0,0.0,0
18.7625,0.5902904119001241,0.8362960584958331,0.38754843084041524,0.32938217987951285,0.6097499736033248,0.5521898168459224,0.7706017861008578,0.9748776683071256,-1.452662290351656,-0.48067269666082074,-1.5478121221398822,-1.7871954663686536,-0.9798121563977886,-1.2352731830600647,-0.8039360457119409,-0.43853607992951604,0,0.0,0
18.8625,0.5620204878113387,0.677311261788529,0.4154607356537909,0.5067579626447314,0.6850838619060524,0.4718429019299362,0.6916768476061063,0.6853367174090584,-1.5406580220616588,-0.753762214772856,-1.4897014317142276,-1.4100340469901602,-0.8614789043743708,-1.3267298534892569,-0.9049008635139779,-1.100779942506863,0,0.0,0
18.9625,0.6749673002029163,0.6749521461430554,0.5243147284807752,0.5478578679329529,0.6233731954586598,0.5689745069009021,0.6909321504001258,0.5104441700242723,-1.286146171289763,-0.7618059519569025,-1.2441135469908666,-1.2876181859822042,-0.9499366833187599,-1.2238374539852308,-0.9021599014188943,-1.4135436400190622,0,0.0,0
19.0625,0.5769606532931493,0.49479979272278085,0.5352546554742488,0.3961426602667045,0.6680727221216214,0.822931995538788,0.7933006729237726,0.5100630844243689,-1.5544326698909523,-1.105329152169753,-1.203673560262758,-1.647989609029151,-0.8979160890334943,-0.9300590945907939,-0.756146402734221,-1.4206766818026242,0,0.0,0
19.1625,0.45357110467052825,0.3668665998425196,0.43019393947407764,0.39155459797150655,0.5893121608327222,0.725301566009424,0.8258015632277246,0.5103565042356103,-1.7736642704487222,-1.3741869223268894,-1.4505840835773711,-1.6854090200743672,-1.0293478246790508,-1.1089249321112684,-0.718912775692489,-1.418489810610962,0,0.0,0
19.2625,0.5581374972145625,0.3654123082060673,0.36995514074744923,0.8325524462191679,0.4635341107500877,0.3999138712765748,1.2506826944778524,0.5763918607692087,-1.53306941402687,-1.4043584183146476,-1.5732970230278422,-0.8084510152382571,-1.1634787883845774,-1.424979797622871,-0.23084010179478662,-1.26781590159914,0,0.0,0
19.3625,0.5377650847377778,0.7244699081866868,0.5801093853104499,1.0207892280162978,0.45192393732376135,0.5383240506419699,1.2709558690361995,0.7489088595028874,-1.6226196262270944,-0.721651659566793,-1.1617907444616578,-0.2736209918694154,-1.182335308760793,-1.2630214471278882,-0.19811709007137718,-0.8985189439859173,0,0.0,0
19.4625,0.7818565587675701,0.8734295807648618,0.6762713701332423,0.6991335748030698,0.5308997740982464,0.6315631157252385,0.9424100967358813,0.8039938629740768,-1.1318912577321696,-0.30659197974427527,-0.9118253481240777,-1.226769677148081,-1.104552579899603,-1.1339879696866269,-0.5697112965483037,-0.7578331061967539,0,0.0,0
19.5625,0.77566687850737,0.7375527260655682,0.6338550675128057,0.28324546226584874,0.7584751342663434,0.5816673775097977,0.9712034612125034,0.6566776618681802,-1.114306412765893,-0.597523149036494,-0.9975686893179038,-1.934034176536306,-0.7851257138364818,-1.1998443760538509,-0.5240063616199844,-1.0999652423788462,0,0.0,0
19.6625,0.4365272185012967,0.5180873128073287,0.5734578872141882,0.4417207158120829,0.6358500141864654,0.5412645957993361,0.9478667808978962,0.6363018478174798,-1.7970275392835509,-1.0828152354766418,-1.1336933155282578,-1.5770404418893618,-1.0112722463802297,-1.2548461882716453,-0.5618057299293122,-1.1368710287986565,0,0.0,0
19.7625,0.41693847570997167,0.4515191048950386,0.6971872444147503,0.5067363086099697,0.516193161887682,0.5255925372566216,0.7416156349199607,0.5579645630512902,-1.8316740342518845,-1.1906170162075247,-0.9897786195756644,-1.371255228018301,-1.1392851788997347,-1.281104526337934,-0.8673212105219383,-1.395734647917696,0,0.0,0
19.8625,0.40036382089173633,0.4789737004205617,1.1533284834971111,0.4473063279386715,0.6597524956924745,0.6178438077269154,0.41390811824632984,0.4259719861348176,-1.870587169743088,-1.1254643845202115,-0.05138741302369136,-1.5131348866980872,-0.9195424676028816,-1.1717414304239024,-1.2717874215607423,-1.6816315406721223,0,0.0,0
19.9625,0.3707840212731639,0.5897224623711358,1.221288485484885,0.5089418069607159,0.5583766207887855,0.7087495956611699,0.45103528387755226,0.6300727703698087,-1.9357321732839134,-0.965281372662297,0.21152877960219968,-1.4339644856806968,-1.0559975523072251,-1.0440417935047486,-1.235138460748914,-1.2245964250519326,0,0.0,0
20.0625,0.350331413871545,0.8845987795031299,0.8238762639402255,0.7147822163967066,0.5763437041255702,0.8532750703859202,1.036177175453609,0.5870074612141508,-1.9883111244942249,-0.3388692521677972,-0.661450694123087,-0.9928306503449081,-1.0260145977953774,-0.9015746730563571,-0.5605639160918227,-1.3299287042844434,0,0.0,0
20.1625,0.5965558973123386,0.9452207812523701,0.5121440932671357,0.696410148369809,0.7379253521646125,0.9988530024417315,1.1290301215085126,0.45631425897125616,-1.533028325999378,-0.1614860043089944,-1.2651449662083998,-1.0200580372829335,-0.7944234167500557,-0.7360318829643765,-0.4021565850486325,-1.5584654334767398,0,0.0,0
20.2625,0.8265200703035865,0.7401136742010357,0.6105790259073289,0.6134396513284257,0.8920589883319354,0.8578531927626175,0.7359941811223611,0.4505249592937077,-0.8995610263440748,-0.6023328533961758,-1.0824900210916462,-1.1717142529448648,-0.5924998840160135,-0.9076969244862733,-0.873573798520665,-1.5723583398421779,0,0.0,0
20.3625,0.7494239887995672,0.5797833592506418,0.6804946234829057,0.561616213807299,1.0911577065990197,0.6472159156826734,0.563615207413683,0.48484177016339364,-1.0895049333548146,-0.9062834045418409,-0.9053679507391282,-1.2958017115432343,-0.32831282330855005,-1.1129113652000016,-1.0560065631690905,-1.5174592044964483,0,0.0,0
20.4625,0.6256225764242083,0.5822761753969842,0.5353575341231765,0.6576026687151081,1.0143352440363274,0.6580870884828188,0.6376959736198068,0.741466214875241,-1.3506146549061049,-0.9020935335725444,-1.2222035378759468,-1.125086160700288,-0.4586225670872237,-1.1015302128524072,-0.9709885803999905,-0.9307301608143576,0,0.0,0
20.5625,0.6564278185916248,0.7211659730337642,0.4977897690702131,0.7501830237475992,0.7256638697155353,0.5818166145560447,0.8447846406632555,0.7618288099650796,-1.2938501414946186,-0.635950907010615,-1.2989407761835026,-0.8594050134858539,-0.8276698952191495,-1.1967217239652221,-0.7035475775866525,-0.8685634191973562,0,0.0,0
20.6625,0.7472195950573044,0.7490286879975215,0.7776985065501361,0.7382696410430876,0.8383698301936295,0.435540095301485,0.8749638669664734,0.9346980142249539,-1.1026892963907553,-0.566727258304112,-0.7604133985433311,-0.8782741451834382,-0.6898283732032116,-1.35311936532869,-0.6797508213640101,-0.5491663234582023,0,0.0,0
20.7625,0.8105308132367111,0.618967349078457,0.8245475212491983,0.8652552607506364,0.7827874742483257,0.5434949067755125,0.6480134570262973,1.2046350551375165,-0.9820195275801143,-0.8305408323274966,-0.6166353611861958,-0.5853693354700611,-0.806744832773737,-1.2594999852648845,-1.0022160048823539,0.11957121898483335,0,0.0,0
20.8625,1.1106866132935433,0.49083022650039376,0.6274061436843417,0.7657370527352517,0.4039320747391332,0.5678148704492506,0.5510403595500961,1.0047133029125082,-0.3528162103656183,-1.1092344884640202,-1.0159070197526063,-0.8440458565060301,-1.248917273836002,-1.2341471644904862,-1.0841879497456341,-0.415057684718339,0,0.0,0
20.9625,1.0873570149848213,0.44063120398801864,0.48158365689661936,0.44718250961899586,0.39425251521739735,0.5029122306468002,0.6632636461974859,0.5872033857415466,-0.3856023634051551,-1.1996126835110779,-1.352005404625904,-1.5876639825996575,-1.254631275580261,-1.2882348210000722,-0.9251279521707529,-1.260502908541151,0,0.0,0
21.0625,0.5732750775143765,0.4319458824348174,0.41727431429657263,0.2896257035639136,0.537062331049595,0.5200516488775718,0.6969786063342069,0.48819204327345916,-1.5659281283600672,-1.2195922280869143,-1.4608261179295123,-1.8864054071167373,-1.0690042140586677,-1.2566707650406084,-0.8847680695086805,-1.469153552746906,0,0.0,0
21.1625,0.4530252911303817,0.5035540953593054,0.4961108219743289,0.4658661454756197,0.5610184225994418,0.4558195855668732,0.7123368664138977,0.5296328698035516,-1.8105883902590678,-1.097980161694019,-1.2902444873852565,-1.5161964571659154,-1.0291954920394222,-1.3273738058222,-0.8662465948693887,-1.3741187012378737,0,0.0,0
21.2625,0.6978161618521641,0.5926391088930453,0.40281930315876047,0.6496893224881595,0.40246294716256226,0.4256137609302666,0.7055512236262336,0.47174989140997137,-1.2334948710898106,-0.8866509140137228,-1.5496607684027826,-1.0609990117653962,-1.259815800635238,-1.3656953483412289,-0.876956444760018,-1.5647993303661636,0,0.0,0
21.3625,0.7292911526106818,0.5010952961129982,0.34677190425686516,0.6032173732332822,0.2994412550717218,0.7171176540066743,0.6066771731704939,0.3172636909940312,-1.1188678528107665,-1.0911316963796631,-1.6535128809528947,-1.1993390870936862,-1.3716164329794425,-1.0891940568909475,-1.0266042110011004,-1.928356780575786,0,0.0,0
21.4625,1.0411116391826487,0.5777592377267114,0.6652432022668365,0.3939178921045031,0.39796525501194785,0.8527554730762661,0.8893563193949703,0.6478135413176622,-0.5586244122914517,-1.01992187631938,-1.016749367928239,-1.6529733086532008,-1.247523661474531,-0.889554358521072,-0.7250199463388058,-1.31237230001825,0,0.0,0
21.5625,1.55401233983326,1.0684306563198056,0.8257989553376359,0.36111518556541394,0.4672020884136822,0.7418132411939709,1.0215526137570767,0.8185186223318544,0.7467596022063292,-0.06094725932028003,-0.5972884177146024,-1.714426868970314,-1.1495659827240583,-1.0112042931856795,-0.475063050126585,-0.7634791606221836,0,0.0,0
21.6625,1.4392697973496975,1.1021278755115087,0.8389312531618112,0.4558661555328348,0.44831805108616746,0.5708493152077113,0.8253598685478677,0.5555834348218045,0.4401355609822551,0.09613332234241712,-0.5602892213265257,-1.4986322997590649,-1.1727297264303138,-1.2263145003332432,-0.7182547293206301,-1.5247356462854003,0,0.0,0
21.7625,1.0453023659320246,1.111526982593642,0.7091464978885059,0.5084249489305243,0.47091376694800097,0.36428938218207985,0.6798669424031112,0.31328696651825677,-0.3692565943400537,0.10576429010683634,-0.882464127222145,-1.3648029626019333,-1.1447115431000396,-1.440633935021222,-0.9130059545695876,-1.9132209667107938,0,0.0,0
21.8625,0.9164224085180913,1.1820825637770052,0.6864741282792198,0.5796132590890292,0.45821580108576715,0.45867852444225016,0.6355313681224423,0.5046420280009133,-0.6878820708449673,0.23075552241751945,-0.9273587377746427,-1.2143759086125616,-1.167759981000386,-1.3455750289158686,-0.9666029430749826,-1.4618771866870077,0,0.0,0
21.9625,0.6466612973572392,0.7297584929557119,0.6473711735964536,0.607446638814027,0.36930200820466635,0.49181850946290495,0.8793469568624784,0.4563401401067283,-1.329943589499169,-0.83599255959582,-1.0783055146091405,-1.1525223181024646,-1.279084968805542,-1.2957764702928132,-0.6688845020582496,-1.6249008778734848,0,0.0,0
22.0625,0.4870738320085507,0.4404697984151497,0.40020100847002926,0.5279243586236733,0.40355554848995034,0.3585170209920815,0.9292457637654811,0.307894571831946,-1.6663987271708185,-1.2448194612363295,-1.54197077598689,-1.3351001565254694,-1.2345123504329543,-1.4404118307089728,-0.6078058645211556,-1.9005546970976972,0,0.0,0
22.1625,0.577827384818455,0.6074650018300526,0.472595102173793,0.5500642566058335,0.42261128993832126,0.5144236330816145,0.910679740531467,0.4454778582935521,-1.481035006344038,-0.8728425162139152,-1.3658996754796515,-1.2844564998111248,-1.2065282960852353,-1.302789308663421,-0.6464485606031485,-1.5962611939687048,0,0.0,0
22.2625,0.8291808357050291,0.6970059579768596,0.5738490861120993,0.49775494863678066,0.5763258201444301,0.5922711687465253,0.8340725780121786,0.6079805339085731,-0.9114735451386572,-0.6648340464946506,-1.1319428026018132,-1.4612118496339104,-1.0407557255440596,-1.195489392885343,-0.8010851942173015,-1.2216043574962332,0,0.0,0
22.3625,0.9242392869739741,0.6761768361199887,0.6223928192124838,0.27011430964938654,0.7027770980678422,0.5287456819538779,0.5256472210913359,0.53432197794794,-0.6530030036453546,-0.7331288454432187,-1.033924447246302,-1.9731859977099047,-0.8523449185200966,-1.2629071049535898,-1.1882625884823508,-1.4475721962295278,0,0.0,0
22.4625,1.002593994292076,0.4895307294257338,0.5434385076282099,0.25807832352674226,0.5927528583819435,0.540216928176284,0.36928008058078093,0.27272616015856566,-0.5006740211579257,-1.1742051399766285,-1.2244601784959892,-1.968506071960657,-1.0020353903137185,-1.2423243091268141,-1.3325635191681755,-1.9746808180760203,0,0.0,0
22.5625,0.8490769090543422,0.6311096751086182,0.59539856122024,0.3986193092667768,0.4041485392620349,0.5758364458339472,0.2968226637329472,0.2719885905496964,-1.007685981285256,-0.9437060980646464,-1.1291543791062049,-1.628554783819159,-1.250517018357686,-1.1965893291979137,-1.4166230340195776,-1.9724039237413995,0,0.0,0
22.6625,0.5748109989804191,0.7667116773593418,0.5546210646531283,0.526955538424232,0.39176244162434243,0.558758131081028,0.46949450814630267,0.335584406868323,-1.5270235058581605,-0.5675955851462775,-1.2596808167031308,-1.3346479183928783,-1.2943728306449684,-1.2169227515307282,-1.2433819410993023,-1.8227451841172992,0,0.0,0
22.7625,0.6878079977596179,0.5847788089323643,0.5237222659402961,0.4459340876671292,0.6481105117122974,0.4788083811805495,0.6468923106454441,0.2867616897113742,-1.2530105960299682,-0.9489598640232775,-1.323438833720025,-1.6050973868895242,-0.9773028819917831,-1.3139502909657381,-0.9637455258364065,-1.945788751135649,0,0.0,0
