t_center,rms_emg1,rms_emg2,rms_emg3,rms_emg4,rms_emg5,rms_emg6,rms_emg7,rms_emg8,mean_z_emg1,mean_z_emg2,mean_z_emg3,mean_z_emg4,mean_z_emg5,mean_z_emg6,mean_z_emg7,mean_z_emg8,channel_count,frac_active,global_active
0.1465,0.8750415469086112,2.223125179794413,2.5110006075248186,1.424049816105167,2.21784136164358,0.6502372849982586,0.9675342270053154,0.931663875858922,-0.44225463676993376,-0.9186777386393931,-0.4238406901703954,-0.8614271583834846,0.6936949535350572,-1.2035155346879345,-0.6352987976970639,-0.4718770098516138,0,0.0,0
0.2465,1.0551533591763853,2.8365443237511854,2.93465841136514,1.2796210506122696,1.832900478748348,0.7505938987412443,0.8723578059177418,1.029479965877352,-0.03442384114183556,-0.7060910739823556,-0.12484370102117388,-0.9843776523700751,-0.16096119399759476,-1.0941576071804184,-1.034126018257568,-0.2934628271951445,0,0.0,0
0.34650000000000003,1.0039554794836631,3.373950373912947,3.7389322118806856,1.4245006237338975,1.0255275548450187,0.8585456689897355,0.7872683569566382,0.813977795387506,-0.1330543421898934,-0.5488793668398801,0.4571964459027329,-0.8688956145644934,-1.46304078041201,-0.9578951265546597,-1.3805847055628073,-0.5639869418870564,0,0.0,0
0.4465,0.7737160222372641,2.881139635547109,3.2723159733208407,1.5412678040253445,0.8608407754635975,0.8372132155585507,1.1217025148884716,0.705448156710055,-0.635017114363462,-0.7493854281369327,-0.018767580736800113,-0.7561786017791955,-1.7656060686421469,-0.9893796332177096,-0.2439343967519634,-0.6972613459337257,0,0.0,0
0.5465,0.5457956850689455,2.193812697806457,1.7381154434837016,1.5920106550798228,1.526065332202517,0.6706509242392656,1.0328043030007978,0.7341222059501951,-1.0388346087381886,-0.9161860348765333,-1.0404632584469682,-0.7291144024460071,-0.7435425761708863,-1.2002433965994808,-0.5690264315926555,-0.663396944777306,0,0.0,0
0.6465000000000001,0.54719890295038,2.6137546087447587,1.7105905449601464,2.026183758456037,2.072008186467247,0.6279904376043826,0.8333139372706267,0.7899718580707031,-1.0236800141606783,-0.7722082945775928,-1.0132821718571616,-0.290275902189442,0.47283858942748275,-1.2425755331611865,-1.116694437258909,-0.6087840046726606,0,0.0,0
0.7464999999999999,0.7524196530094425,2.2972222319163387,2.122401521280663,1.6970687488077694,1.6433352618691253,0.8006036541835134,1.1545991540866007,0.6064646603872067,-0.6692046943859218,-0.9030765714958617,-0.6872112861065489,-0.687550778723992,-0.5533598171741827,-1.0331372295919385,-0.0036974958846922095,-0.9027609491717686,0,0.0,0
0.8465,0.8185490957548859,2.6442092606224117,2.0166035277863106,1.0480962898748614,1.3849143022324908,0.8371120641154101,1.0887195302378816,0.3465326152934962,-0.5168605490119323,-0.8024668436847311,-0.7790788488787911,-1.1833649429102473,-0.9248182447640351,-0.9828557525041561,-0.2896516508053893,-1.1535004005109504,0,0.0,0
0.9465,0.7673424113162823,2.701063848276279,1.711138383227024,1.509636388316317,1.7296019216955716,0.9655003773566797,0.6698643365721539,0.5277308962776113,-0.597781126055875,-0.7629082861371161,-0.9990333380671399,-0.8214962601810136,-0.13393335772001913,-0.84683607788054,-1.6918943514470692,-0.9486507359985095,0,0.0,0
1.0465,0.8232780294192801,2.000983080307061,1.7428717616159124,2.5635464140668867,1.6776774814181896,1.0587296781707818,0.6354933608651187,0.8178154096673912,-0.4863594041836945,-0.9672734944992036,-0.9840856687453329,0.09460446349874299,-0.21056487450794814,-0.7357625475144731,-1.812338863945238,-0.5767263514872393,0,0.0,0
1.1465,0.7182176168667053,1.9203409966619736,1.8956071298168773,2.3902634412079418,1.674551237476792,1.386574839495738,1.098429007285965,0.7989106529351111,-0.7542618249948961,-0.9928698520473377,-0.8621901815338664,-0.12918791221620446,-0.21521337995900156,-0.4011968718138555,-0.3451940183748342,-0.6091251658269068,0,0.0,0
1.2465000000000002,0.709098635751881,3.2001620371215407,2.8296768752663857,1.744864188590595,1.5530227042903364,1.4884893687160141,1.4705051239403224,1.3176867146334827,-0.8456592520531443,-0.721590756171723,-0.3280440960883108,-0.5887313276268388,-0.4612139179313599,-0.24476568295964177,1.0728579244365513,-0.24784690555433384,0,0.0,0
1.3465,1.8215953993332044,7.930063275206293,5.478490662169355,2.1645149241075687,1.0579104876706962,2.519692052418247,1.6755288171911678,3.7655109191055756,0.981520389727084,0.6824042483433047,1.4686007757122237,-0.13963339978657216,-1.5863910879412995,0.6479068536047653,1.6775520405447804,2.5622134365361187,1,0.125,0
1.4465,3.9174997925378765,10.053988510194545,6.315270533672997,2.7768860091014127,0.8528846800422254,3.8758168957313375,2.0909100407011203,6.726583226348601,5.056013592835286,1.669309172885047,2.3427609250488164,0.38185312633409524,-2.0221473538398405,2.4433800253107676,2.9446106717398295,6.564582461471982,4,0.5,1
1.5465,4.245690125225622,9.050363253621937,5.348022894275399,3.5480178119625925,1.524192646701785,3.5705910235291523,2.09252608611395,8.919717608722909,5.882673440718873,1.3376328369386155,1.6328894381736776,1.1028512066761713,-0.7632873222712252,2.057905325589149,2.8885952010062055,9.505970789278015,4,0.5,1
1.6465,3.112125627920837,8.143697231104703,7.204844983924052,5.135345085263949,1.796226748409543,2.7910874519263142,2.7315758825834697,11.59389864854361,3.8428010389953213,1.0418497229900137,2.7278507425334455,2.4569053488763397,-0.04377271757953964,1.274827819522858,4.822139163371859,12.873872307334823,5,0.625,1
1.7465000000000002,4.039255488422387,9.038550979962933,8.858611144446186,5.864531163847048,2.0687083046817154,2.7316736390163414,2.867243273435585,11.1373627089111,5.375453846648825,1.3105056426112895,4.091563146241699,3.2711512409447323,0.4484007173643598,1.1953607242735023,5.6313044282442775,12.1231752868813,5,0.625,1
1.8465,6.245060482620239,10.255806748905025,7.613715797200778,4.826875670783409,2.5248405281386934,3.1705651723991233,1.877190628299953,7.015598673505346,9.69894145785786,1.7345693323743945,3.204878379801031,2.2473750106771466,1.3543273090691843,1.6243864593380448,2.3852537011623345,6.94760018681524,7,0.875,1
1.9465,5.758044365937745,9.039711180496171,5.490071386122521,4.895361711847804,2.774732428729899,3.559617151533335,1.4583517888317457,5.5725687988063495,8.462980007495458,1.2536384020307008,1.7778164190161494,2.2887911105521206,1.8164337873849927,2.129154214385257,0.9552435149136671,5.335738290643137,5,0.625,1
2.0465,4.010920843508651,7.219356394582224,6.094472027353661,6.271458916903431,2.933588738214192,2.772338530208088,1.0579553025165471,8.877397552192173,5.615231439502565,0.6469857412027115,2.1597851640211263,3.6118688306082363,2.1203701578917657,1.1538533253996597,-0.637330918778353,9.105807051882046,4,0.5,1
2.1465,3.3106446478078384,8.344346695965417,6.2910473052808795,5.980858255695759,2.962174189971781,3.423640096290931,0.8122861255501527,8.206158113549264,3.6863436059015715,1.0307281041985419,2.331019184472975,3.311496256909539,2.166786675174044,1.6823504858110863,-1.2491139891579883,7.3623193897565775,5,0.625,1
2.2465,2.3929209762788366,10.883896014303962,6.233685359951931,4.293043012218206,2.476740955314717,3.9362995635328017,1.0516194988268632,3.316261981510382,2.307605935357616,1.90147260384463,2.259610971013069,1.763004314618057,1.1692645234236791,2.3313554557639633,-0.3642771325127276,2.0517992416586464,4,0.5,1
2.3465,2.725868447884987,15.464379672512681,7.75409621609861,3.2007886168305126,2.480952158189611,3.050775518597522,1.625188694548517,5.853172872150657,3.156474986723574,3.327332090196888,3.378385400816721,0.8050040085572842,1.1635631257692878,1.3509245382923305,1.3643485716727617,4.9305309838094065,5,0.625,1
2.4465,2.1995882358742906,15.378850517104366,6.555565726909483,3.040475395924366,2.6450370802602694,2.9943046473567017,1.8356795785111815,6.724919186456612,2.1601038319186063,3.2617378709492044,2.2554844478589993,0.6640506961918996,1.5227306148307016,1.4197734314640613,2.186468171365729,6.777125371011292,6,0.75,1
2.5465,1.719129451457405,10.254169666184115,3.371285838289116,3.2301772235585275,2.275008473617471,2.7153416884941346,1.4428088100210714,4.607454283473081,1.2288842992574471,1.6315810558931543,0.18052830745762247,0.849757097283595,0.8790523327298367,1.0733304637900865,0.8990330586187936,4.0254354012828015,2,0.25,0
2.6465,1.2485411894289205,7.337055118615341,2.8753279082497785,2.5435690873656656,1.7554230902412498,1.8947629788452776,1.1228345743584123,2.696141007417773,0.2626038076862001,0.7554326870024367,-0.13670225422138427,0.00992863297705733,-0.27538000517708183,0.2526622855837314,-0.07974303843043815,1.4846744010198245,0,0.0,0
2.7465,0.8941740973191544,5.815209814530565,2.918235957810595,1.1780483296847495,1.6939106316030972,1.7948276722238952,1.1066334447790513,1.35029333149279,-0.3512211641608603,0.27616316279420877,-0.09543735864251335,-1.1273970608955974,-0.3673968160051933,0.13561825555853166,-0.14446719376017556,0.11651225465905181,0,0.0,0
2.8465,0.9298951345089491,4.806939004737003,2.5319481355244795,1.3427132070930565,1.9203952418210153,1.344135622825284,1.1748182496558939,1.1686767287994024,-0.28655780503979633,-0.09826667238840851,-0.4011613739495256,-0.9742935758638198,0.19087547376870584,-0.5133220349215513,0.10691939809570555,-0.11716350972895245,0,0.0,0
2.9465,1.022113298277247,3.2944341905010726,1.7898789062476728,3.4355371765714673,2.062337121071125,1.0290505414071343,1.0588626380422719,0.9454880137959685,-0.09999231403912708,-0.6630017711471493,-1.0172850670165454,0.6394299560197263,0.35726036623173796,-0.8524297952864864,-0.30061507066208026,-0.4247850952754144,0,0.0,0
3.0465,1.0582031359513766,1.9099105598374884,1.5463969276095653,6.078271783822105,3.0469188948130443,1.2662504127872327,0.8228285437244821,0.8603422461625365,-0.032829187698011804,-0.9973190031393083,-1.1830986003295452,3.2254681552606463,2.16166354798807,-0.5316543128722092,-1.1319948338813353,-0.5086130397188162,2,0.25,0
3.1465,0.8501892457590885,2.070002905192184,2.4325266459656554,5.816244787959452,3.1113888864925077,1.0565625824686908,0.5518018105708783,1.1054736161674175,-0.5148343141954755,-0.9447947425546385,-0.5257559573003985,2.9116459140272575,2.335118787050008,-0.8103294815000781,-2.1688098691505955,-0.19689129881279852,2,0.25,0
3.2465,0.8029328424679046,2.2551755418363904,2.8740071879914058,3.065787109446105,2.055363655058199,0.575760609165095,0.7878216217768168,1.0698016092557046,-0.6034987240748031,-0.8833361653907659,-0.1261638316964947,0.5121721588413005,0.2821271889362366,-1.3025894569907803,-1.5530536591035955,-0.26574073799334846,0,0.0,0
3.3465,1.1843553530776967,2.295636824151403,2.51465550477152,2.0493151329344963,1.2399862279992953,0.42366807330024664,0.9660708259294414,0.6597845136803833,0.1703441795903404,-0.8687597956706483,-0.4175975462790975,-0.24938358397061536,-1.1095498431531086,-1.484074676666702,-0.6425728894406485,-0.8662587158941729,0,0.0,0
3.4465,1.1123724655528648,2.1482008560570476,2.074831146571582,1.7093163256845496,0.7851279602376697,0.6300204005084842,0.6700004827754452,0.23951258535032438,0.006228915073978714,-0.9186531832228324,-0.7193964530150762,-0.5943995823955264,-2.106338213513167,-1.2883939117084473,-1.7860873963919925,-1.3148954773191306,0,0.0,0
3.5465,0.7758179371382606,2.051542952393682,2.541213455565116,1.1329023438375079,0.6425722829307372,0.9765046486679758,0.4834864050245511,0.256107950017674,-0.5883572105439105,-0.9499597438593618,-0.42009352810749995,-1.1059256251051754,-2.272462840738518,-0.8367883787879261,-2.325131914086754,-1.2936018090288008,0,0.0,0
3.6465,0.6071973247332386,2.00988886527847,3.3992304181370936,0.8819509681493183,1.2866057978895242,1.0444127806644894,0.6148363128984838,0.5542310781011716,-0.9562019143954512,-0.9680588551528875,0.20622245609282636,-1.3161141535430567,-1.0882325999567906,-0.7511995351831992,-1.8415155443494688,-0.9456753284699014,0,0.0,0
3.7465,0.43080649600044857,1.5798347249658138,2.8215070649877414,1.0783140372816875,1.6286325583623427,0.8559202664473473,0.7112239824196588,0.8008703266855088,-1.250758064207573,-1.133961567511387,-0.4459487517611986,-1.16228674855666,-0.3163563052483296,-0.9781452621879854,-1.4835040823904604,-0.5869203495878018,0,0.0,0
3.8465,0.44117025162242657,1.5920107079924462,1.4669914139825357,1.7528271867444816,1.662963620478299,0.8835191900864193,0.7979278197076123,0.8377675643420865,-1.2299324863755217,-1.1323410385237123,-1.2454659562168393,-0.5807371790975414,-0.23689761796522446,-0.9436086282897099,-1.1788893586212787,-0.5360348448529355,0,0.0,0
3.9465000000000003,0.6290742566390698,2.0710662967513214,1.8359968439134058,1.873271163867417,1.9291026688306352,0.9891274019546313,0.8090266438975642,0.617909609145598,-0.9139772076477964,-0.9515445996718437,-0.9333676608795077,-0.4257773270592511,0.22317488452965986,-0.8051826988709522,-1.132835156933168,-0.8615611730314953,0,0.0,0
4.0465,0.8113973829475116,1.6869230888468891,1.8391575352130942,1.6889692182961502,2.055001952005236,0.9371354837917212,0.620274736577807,0.3008006466886227,-0.5143093809837584,-1.1076561173235993,-0.9094186382259446,-0.5743184773101908,0.46199677395138233,-0.8636356753797346,-1.9216456269514552,-1.2379817991220405,0,0.0,0
4.1465,0.7832384988096487,0.9503576128191872,2.0729572626752337,1.5478385086527786,1.5073676009842496,0.9948423386583887,0.44584086510512017,0.16023299499167762,-0.5724368540623282,-1.3276934635353923,-0.7560062272387986,-0.7380930324808804,-0.7740308867855917,-0.7996443679894828,-2.456996893630066,-1.4228542919808482,0,0.0,0
4.2465,0.9068799599509458,2.8806417755277325,2.50638662834911,1.0042156751653488,1.0651271593769478,1.0692885637455602,0.5010528080018749,0.45821528872547157,-0.4390229619765754,-0.8737479850839135,-0.4408456802510288,-1.2489143104017706,-1.5056896476647998,-0.7118782045248746,-2.2241837925675934,-1.2114345953871857,0,0.0,0
4.3465,1.6589459174369479,4.3957655484101945,3.3559732355943606,0.8877104144076015,1.6142775144462116,1.009344959598496,0.5584133698005445,1.6302417499618587,0.8855638463733994,-0.2218209938378123,0.1411602528205583,-1.3265819614705936,-0.5074058943844433,-0.7899025527544012,-2.02831177388368,0.13713623209972997,0,0.0,0
4.4465,1.629159779548409,4.000320251848443,4.152642847162705,0.8550315551071622,1.4972691010335508,1.8405217895623198,0.8568267451866535,2.0214269293133813,0.8659446286254828,-0.357300395257329,0.8187171094401076,-1.3732502931666162,-0.7450973336201113,-0.04834253416159748,-1.1268269953048775,0.954089770820006,0,0.0,0
4.5465,1.6504781698232251,3.7647890574760776,4.7897658556521465,2.240795239860805,0.9751968745629888,3.9084139389103854,1.6293385100584117,1.9247968577199892,0.683882111247265,-0.4695352397632784,1.2696217116665263,-0.49389956856049183,-1.537430599083609,2.2927368024081307,1.360590996076803,0.8400896278292279,1,0.125,0
4.6465,3.819952263137861,7.394657930283889,5.987962438244315,3.1542660974651873,0.8361144378813559,5.461814547437619,2.3323848078862817,1.7420439739052274,4.559511632369028,0.6011126381220995,2.137375237600291,0.6678189276553883,-1.863079831571357,4.337271658528352,4.007237647548796,0.5723744279171075,3,0.375,0
4.7465,3.8297638343384004,9.151609328275644,5.892561369569092,2.650731635309935,0.9241687361908769,5.915860087895531,2.7519300063755634,2.4441271048426,4.711683289490688,1.3731364514201811,2.064560855232239,0.2069091922775019,-1.7838500750122535,4.816703822578186,5.47547147824469,1.0831763737491118,3,0.375,0
4.8465,2.20266032349433,8.837950895997038,4.997323919022593,3.2039194602349097,1.730601504512186,5.823634820337668,2.3322114712958113,5.404105457921567,1.8763659437341886,1.2768959473277455,1.448727351957848,0.6297338860485345,-0.3053185925012196,4.707375064502165,3.6998472895369168,4.614086888236731,4,0.5,1
4.9465,4.7441574197404695,10.722991480689847,6.065775505563215,4.269652094300542,1.7009832315706719,6.028116856390666,1.780095740524989,7.1007969139568745,6.013781608594193,1.811398407501164,2.145306725996726,1.7820541530274538,-0.34426318016796387,5.030241554553398,2.11749567727406,7.368598926706418,5,0.625,1
5.0465,8.354685686675325,14.873406454607869,6.150339572113417,3.750165014649469,1.308863778830401,6.204733238107551,3.7707075928939036,12.389125584474442,13.71868666238849,3.1499661470538034,2.1363996553849693,1.2519084023787532,-0.9458135144496806,5.2870437141765505,7.618712277074224,13.010102197976641,5,0.625,1
5.1465,11.194121579965712,24.828195634051504,4.910116804464535,3.0205899806290777,1.8541632120369034,6.256891581372292,6.085133266963467,12.634652570147676,19.540405531975633,6.131356320948854,1.0700790521131414,0.6410785702756371,0.037756265580940064,5.339794896835229,16.20767939829986,13.409312149212782,5,0.625,1
5.2465,12.000691310863187,31.696473346499488,10.321590907637239,4.284610794428634,2.918420191047607,5.32362502335729,5.463913596290185,7.406602502116513,21.172090746072925,8.613370162935533,4.32060768300051,1.6911456326665977,1.9045994882264856,4.0079316279981025,13.219607017345634,7.610701994400667,7,0.875,1
5.3465,11.866926931067244,28.077545672619696,12.641451588129994,6.090934524133612,2.7627301194514824,3.2351649138159138,2.327428175451318,6.061274568925039,20.884881484701438,7.318287516651213,6.996144929437955,3.307175709503948,1.4806140101363454,1.5958882270910757,2.622376324445929,6.028375681645031,7,0.875,1
5.4465,9.506522191226237,20.42690572697883,11.755810566321296,9.040131818097493,1.8615217919126625,3.42123149864519,1.6417879797439543,6.6922945276798576,15.113105103992929,4.822886907389169,6.395156950703568,5.898280180151993,0.09364837149450565,1.8404972495204293,1.087094192160466,6.647656005568169,6,0.75,1
5.5465,5.063587328971615,13.510801376954628,9.9138958244632,8.745700629786405,1.9956110685538884,5.317250846627958,3.371694043081302,5.866541408181112,7.244895768730734,2.174998159592735,4.7176137651853844,5.5270919167498365,0.3313982950747903,4.0976284241452126,6.895144369032644,5.026299233233157,7,0.875,1
5.6465,4.834777349988885,16.552551091681146,7.235266475392745,5.253560500082733,2.4054355439945803,5.931436990156444,4.141891530646159,4.419697073076371,7.170202112607286,2.9461771733916886,2.8681075867573993,2.5156536528708333,1.045944565924597,4.888327197547106,10.092185208225041,3.573003256631497,8,1.0,1
5.7465,5.995366887924443,22.086038045155064,8.649645190668892,4.4864376010972515,2.640015703437268,5.117997137409462,3.301725462517162,8.54799760975351,9.569502944793387,5.4151085807234836,3.909209754593202,1.9976483789922546,1.5786344451849117,3.9421302106319134,6.904942465667419,8.5833263576104,7,0.875,1
5.8465,5.561357227441991,20.514143602896194,9.285632650739585,4.817661614103479,2.2283780849989716,3.6384813438644446,2.2811803906320725,9.78805564252695,8.623890330201144,5.000583204435192,4.520313896371772,2.3212883154445065,0.7097025661689511,2.0682444740567805,3.8602170897886428,10.660904679908988,7,0.875,1
5.9465,4.248484523992406,17.818454289209637,8.915262960478993,4.648957970166218,1.579778809492945,2.61855312827386,2.011153690328409,6.717553939484753,6.076489561367397,4.0850456595703175,4.27839235791174,2.1520003223579076,-0.5694357817155966,1.049630869106731,2.9393518258866944,6.064702868975989,6,0.75,1
6.0465,2.9575608507870417,12.624899586483608,6.990491109276457,4.452988517699869,1.9114446568837096,2.2090200991934297,1.4906174608895502,2.650703997557961,3.2188876821904815,2.155885660870412,2.55516045864847,1.9650243268210723,-0.010371274058346463,0.4622191625810776,1.0134324945230222,1.0435281608662803,3,0.375,0
6.1465,1.7924287052572074,6.498850379661538,3.9985657333329616,4.781312296688347,2.1481957686291815,1.4392598896032378,0.9960473730462283,1.1892946934806068,1.3836275086148058,0.4112585217470865,0.6336598463255715,2.2653383134232357,0.6002848076996258,-0.29894680517678623,-0.5828861344838688,-0.18379270593969577,1,0.125,0
6.2465,1.51542077579478,6.192718521935017,4.224301672991485,4.198758656492023,1.8390768373211435,1.7290299084039418,0.9030497336834964,1.5556320110340742,0.7553192236773412,0.3686378659403646,0.8390939934978603,1.6275322562560008,0.0741822512822116,0.03880579146097151,-0.8124397662477533,0.3171316984489745,0,0.0,0
6.3465,1.0715344549594226,5.806262329883484,4.339502828690913,2.4477619205947505,1.4714151139609308,1.9287016198264186,0.9155935211163327,1.2244903787511077,-0.006781200593312944,0.1874772505404934,0.9232705542767468,-0.12037062021547505,-0.8247674733546466,0.28995459026605686,-0.7666732179831922,-0.21116869633221336,0,0.0,0
6.4465,1.1641412507781557,3.314261786094413,3.510782257087208,1.1499053410900926,1.2371272501321355,1.9899473930847706,0.7810462618015537,0.714969209533311,0.15831788088959742,-0.6044217890714237,0.3059701305635146,-1.1113822657062171,-1.3006051964822822,0.3568027457829432,-1.2572939075263876,-0.6948658716719543,0,0.0,0
6.5465,1.624209850696615,2.7545897325847415,3.732775775449679,1.4897725583732073,1.8190110879078127,1.8754618292493255,0.7727896970180076,0.9089942053724285,0.9941856383669733,-0.7404487547994637,0.4663912379934013,-0.8202386150044806,-0.11870677860178766,0.19083939486464918,-1.3260157735845144,-0.4589078012140629,0,0.0,0
6.6465,1.7212463879071034,4.590727266399095,4.342702258983092,1.8456975306547465,1.787122315509175,1.3272164005650877,1.3603186255108302,0.9148579115176984,1.2396955031567003,-0.1878390645676851,0.952976921059943,-0.44149845216610567,-0.13594318084025508,-0.50937726456418,0.45799498077800516,-0.4440430073308144,0,0.0,0
6.7465,1.2579530809874075,5.5567391904215855,4.321998690495378,1.6710966551211905,1.2474535528560453,0.7757712473747237,1.4971888996692728,0.7196535506139462,0.3000526347600251,0.19636759015433808,0.8977037311517176,-0.6324427286574107,-1.1367166094989674,-1.0876415468491483,1.0485632075698412,-0.6878086027790856,0,0.0,0
6.8465,0.9358592176046121,7.370960002590518,5.121059749433193,2.751947950372444,1.49272211910209,0.9037865447046226,1.1282280160945386,0.695769283213341,-0.2771153987024039,0.7145876692772581,1.361489581710145,0.1479297696021964,-0.6944997568875364,-0.9514846394989255,-0.1942572080157029,-0.7233510813181576,0,0.0,0
6.9465,1.0529447948608537,7.587426247122336,5.954674812701408,3.816355912112192,1.959582120642923,1.3529387351864666,1.171096591955545,0.7954300832222466,-0.06379997730248631,0.7627073885780543,2.018987186687102,1.3291693582755721,0.2839158941912417,-0.4076005224819078,-0.02513942173400041,-0.6078760573577799,0,0.0,0
7.0465,1.3964596223137087,4.977830552365361,5.114237344607512,3.2254655107971613,2.654391537274987,1.8041482372354818,1.0141365542833611,0.9639168693204646,0.5996084178101581,-0.08838267700873734,1.4036344716445392,0.702838501846732,1.5023931383864177,0.12666391414439693,-0.7265981503502585,-0.4028303922821674,1,0.125,0
7.1465,1.8626761334416073,4.347553845074968,4.073756647249412,1.8658262197760958,2.569147774557167,2.0876547941719843,0.6798701091934309,0.9334073010197583,1.500263456925738,-0.2220099341622903,0.7618888523370712,-0.4425429317927068,1.2173030144012866,0.4740775418498393,-1.605046095098343,-0.43011601463963545,1,0.125,0
7.2465,1.7482154233152394,6.3746647641113,3.6189371635358123,2.0533560649012306,2.0866974135025593,1.9871375870652015,0.7280002999552749,0.6785611754401942,1.168199399242521,0.40773896779820945,0.35153541358154683,-0.3011558440728276,0.43439018000073026,0.30467390646494513,-1.4136132080922976,-0.7413866965031782,0,0.0,0
7.3465,1.3338708608081733,7.635100549428648,2.400452139027925,2.00747671811331,2.0330551095114053,1.617918746645299,0.6973285795239912,0.5826523736299121,0.4078010947473636,0.8608803693907531,-0.5675302551236794,-0.3730364992248883,0.38226191569540446,-0.18503849802438344,-1.5168645983690638,-0.8579134069457816,0,0.0,0
7.4465,1.5478884619274613,6.94800199150505,2.6499570022218784,1.266473999704965,2.6507245168721427,2.4486757067454756,1.004145910575797,0.6232096159944998,0.8162487143742609,0.6169100303689801,-0.39152647036891186,-0.9808454190687711,1.3519272108487979,0.6501538665606649,-0.59239376203218,-0.8016463176604547,1,0.125,0
7.5465,1.525427567232245,5.651836218941435,3.937918554690544,2.1439259261834636,3.377850127953933,2.894674371532477,1.1036369935492498,0.8008721723786897,0.765311209778002,0.14141315432210266,0.5765109941949477,-0.33537075541170686,2.958918614754156,1.3902543450754932,-0.16256868072762717,-0.5877686618473862,1,0.125,0
7.6465,1.9270167059759318,6.6379889355703146,4.44041827616683,2.8596708293022775,2.702860166898333,2.511086652524777,1.4821478090358782,1.2560692588620106,1.4702518731282037,0.40225945612281727,0.9401959349292635,0.47079445442730544,1.38694360786923,0.9529127398948334,0.8705199025000678,-0.0652579540234303,1,0.125,0
7.7465,2.107848658181588,6.1945718023861565,5.2539722580872,3.649273282383205,1.7930447642416294,2.7718015979572463,1.8891213340976596,2.175679569969476,1.9780720164553776,0.25136657116639005,1.4834038154439475,1.124004192675736,-0.08297858545602686,1.2365591817739474,2.4983082174971067,1.0433798614950733,2,0.25,0
7.8465,2.3857710658654954,4.331551146732523,5.750824758405398,4.216556448504414,2.3981250101352307,2.773255947185487,1.4968276800935305,2.286020225393608,2.4301151198768123,-0.23813529979200457,1.894045859138146,1.611778274440601,1.0155856480188468,1.2150385936416155,0.8141252288485633,1.2002755732620396,2,0.25,0
7.9465,2.430335436373524,4.792526867108282,4.632049657334782,3.6170667810133015,2.4091104807676826,2.2387304656125435,0.7482024696913846,1.4393611324287274,2.502817047791944,-0.07875691338166949,1.0525603628462872,1.048894156850744,1.0558614789820613,0.5814534877335579,-1.5400023012741053,0.0901425636928575,2,0.25,0
8.0465,2.020187540427598,4.69603300927498,3.054721646970668,2.3077478681548746,1.8817800727351732,2.450664364507615,1.2085914511483673,1.784397205141844,1.7831092984711467,-0.10038157306025268,-0.03149462384398396,-0.2295113248861101,0.1465354435582498,0.8347127857230099,-0.304435486569378,0.418930259121011,0,0.0,0
8.1465,3.137913876096055,5.143984417932962,3.5773488158304994,1.6670762847170648,1.9716114787666605,3.8866042608476836,3.083492499761733,3.4155541614477363,3.7154955138546724,0.04299816222775526,0.28314352485724154,-0.7862563892228538,0.28440460813554014,2.3504912219734693,5.560106314696037,2.5197409101240704,4,0.5,1
8.246500000000001,5.256754599208323,7.0558338130112555,6.638925639255572,3.621957691563509,3.1236884436781622,5.876194903026956,5.454302436838881,4.46088724033921,7.821200673692954,0.6002734874111885,2.380746508607358,0.8331264989425671,2.1931461281683564,4.655634333905019,14.092501359111264,4.034293371999978,6,0.75,1
8.346499999999999,5.405439073581434,8.410984976894913,10.631416259501394,6.176989219344983,3.1806859908832896,5.232800464334335,5.297712640830395,6.450377218843525,8.222192366298083,1.0282744196206601,5.360246089591479,3.35087844756343,2.338644729937565,3.608571950784068,13.33189134520531,6.287668979037854,7,0.875,1
8.4465,6.7688456557744265,12.163761121615183,16.415543308232486,11.21010621237829,2.22831022448552,3.1782424806412517,2.970741999695408,9.898728429414588,10.226085713387523,1.9362620756943891,9.553949310233007,7.639557303095094,0.7479724940217517,1.6977756279146035,5.781628572565069,10.712955084880907,6,0.75,1
8.5465,7.839203066369142,24.35340938172175,15.908934071253128,11.932113542121861,2.028835857272983,4.295599138457121,3.457979607117895,10.533297473238942,12.752321577309997,5.6546954658923925,8.860457309702806,8.58831096262025,0.4054526488047423,2.9611948633527225,7.189016879093583,11.667117901029858,7,0.875,1
8.6465,6.454844390561943,24.87238960150507,8.589845760136647,7.943026145638814,2.9336421134003436,5.3806673346949685,5.194877025614698,7.3043657588071165,10.24699316424924,6.075069599834922,3.4176240561550424,4.997101885864903,1.8012747383676648,4.249704117914455,13.56909072395559,7.008310024155589,8,1.0,1
8.746500000000001,7.30542322831829,14.263780472854,9.491289496138538,8.739345245076809,3.412335676992846,9.393965015306701,6.505447724422402,12.894386267600689,11.893335090585765,2.890562298895576,3.9941599474247407,5.553667876800194,2.946929128672675,8.296000493018676,18.17307040122042,11.446036798633841,8,1.0,1
8.846499999999999,9.830492606631292,16.900275024707412,12.155072931722966,10.105440300583817,3.588293054005588,9.754761672517729,5.52917037992507,17.938730602603712,16.92684301624085,3.6748589572870323,6.57237834571777,7.044560793627741,3.2806529622367147,8.69805449161566,13.616810811021814,19.434764961811148,8,1.0,1
8.9465,10.492191269545332,16.310734235249384,11.255166979018314,8.838312417863,4.179468177585806,7.594254809882517,4.666912588631508,13.113745926774367,18.349753196434616,3.3235109856599845,6.0605357854366035,5.974750467398544,4.461262968317008,6.464309171442791,11.02990793923732,11.381200222544466,8,1.0,1
9.0465,8.740840805804828,7.934778628437202,10.118382131459411,6.949833581747465,3.6070923120590326,8.036970600550921,4.94060772640883,3.8837105831782357,14.748420156884817,0.8076677649402683,5.219660002470883,4.131654756913472,3.1928202397362577,7.286936205664098,12.258950169397743,2.9794129963185143,7,0.875,1
9.1465,6.839863016503003,10.041150788768567,8.612896596589078,4.994265364117548,2.3906518879563428,7.272322078133944,3.424534848948436,7.709095709025668,11.152663864590352,1.289801921531783,4.083560587362633,2.3506461457205017,1.0328028190738374,6.465014730055798,7.2183798273540845,7.10866386802761,7,0.875,1
9.246500000000001,5.57309790451001,14.937916573174085,8.134116040933819,4.74487465903142,1.9273335299092023,6.589053824629509,2.0854497118373403,8.156452010137931,8.493529224424663,3.118103168912671,3.7579739334064026,2.1503645184962763,0.2327258679899494,5.69225604395195,2.721277195052254,8.26150574366239,7,0.875,1
9.346499999999999,5.61921483777184,13.857869865382382,6.726878210160015,4.3616604267337085,2.2124983206182596,5.69840340660393,1.4506659563278377,4.568664445040593,8.60937404837258,2.7517463485955376,2.3439661522212454,1.7848437654958258,0.7255657980387543,4.593216739220674,1.0354895408522085,3.8832755784924484,5,0.625,1
9.4465,6.481392714697829,8.523038694864804,3.2982664040404552,3.1306121475623208,2.3464577278178274,5.119645011428571,1.6426582042590314,2.7202516274427806,10.496157379435171,1.0247220221168398,-0.032879900494301575,0.725940427753448,1.0280353401009241,3.8996063829235923,1.6510233287413185,1.6424466906166664,2,0.25,0
9.5465,5.231349478456,7.179713693189358,4.16032167506554,3.640946820063765,2.2378036119556044,6.471111614917108,2.23577347086781,3.6061512106392244,7.590551549683991,0.6420851118796598,0.49343440124981586,1.1188478351185025,0.8320675087320963,5.3641020948581435,3.5080633658668945,2.5661961624838843,4,0.5,1
9.6465,3.2144864200571095,14.672672188014534,6.49378169659294,3.711323035963414,2.0039220931025747,6.051349729151113,2.8321860552197826,3.470561419681706,4.072773261791173,2.76921306396001,2.4022370665198154,1.1960034739662104,0.26520924303929866,4.8177369901680605,5.776600646006174,2.16618355751624,6,0.75,1
9.746500000000001,2.527611275329564,16.802256173713534,5.948028238655127,2.4110194572174937,1.5690494111952051,3.50399565562356,2.6621817975532744,1.2886312698219666,2.747149406018883,3.7963550439415603,1.924146359711,-0.0015688557139621297,-0.5160447641612241,1.9299150117729895,5.036161083173358,-0.126871004914147,4,0.5,1
9.846499999999999,1.5904814374937428,11.443592195406259,4.775512661236274,2.6360258228405056,1.8166947636849098,1.917519436794058,1.747615815031652,1.1405586461274198,0.5972118799140569,1.8837679196418424,1.2125699432257058,0.15690086474028017,-0.021112497510686157,0.11458167880060545,1.4887583990404771,-0.1794009348245326,2,0.25,0
