t_center,rms_emg1,rms_emg2,rms_emg3,rms_emg4,rms_emg5,rms_emg6,rms_emg7,rms_emg8,mean_z_emg1,mean_z_emg2,mean_z_emg3,mean_z_emg4,mean_z_emg5,mean_z_emg6,mean_z_emg7,mean_z_emg8,channel_count,frac_active,global_active
0.1625,1.3164611253379432,2.550139097794742,0.5604432797116817,0.7970863847493013,1.4000555378988087,3.432670719998553,1.3675821076370467,0.646066328322614,0.633008007986289,0.07457923458729013,-1.3993780222311574,-0.4828172949558025,-0.5358198591808304,-0.40123952474885854,-0.9145786882923101,-0.7616533181612815,0,0.0,0
0.2625,1.2214526226437454,1.5621092495982618,0.8150623793386947,0.8426144464259779,1.2757923328195693,3.3296352700155065,1.185207457234496,0.766671941310771,0.003623444568856797,-0.23757810070227528,-0.7269978556125831,-0.9686791605167576,-0.3934917950888094,-0.4076901807168282,-1.0716015762676367,-0.386931990967167,0,0.0,0
0.36250000000000004,0.5165882180186487,1.4148395183562754,0.8476881637068988,0.8368024264547069,1.0737394130218862,3.0517604882178504,0.9461225126749985,0.7520057733336593,-1.1353925566983392,-0.05624574191296122,-0.6531564388924858,-1.084702131906722,-1.0459848242882301,-0.6567653086463935,-1.3479024712982832,-0.6049301643932715,0,0.0,0
0.4625,0.7699368851052455,1.5375619706882502,0.7454799050826586,0.8790584023917518,0.9308553245125579,2.4997194445361375,0.5884184796971231,0.5213086220847613,-0.7192411268689363,-0.5210511460183272,-1.0963169981805152,-0.7968559287251956,-1.6084540815753425,-0.9225907041769862,-1.6256959550441548,-1.1937640366215982,0,0.0,0
0.5625,1.0937352354609007,1.3730051768866198,0.6924152836763671,0.8325953153897795,1.2461241872081597,2.456083578636609,0.6575588020900153,0.5177524663420159,0.0811815518877764,-0.9814501866639698,-0.6686293518539582,-0.6588952811542833,-1.0601599784778533,-0.9438552930303667,-1.5594101335501853,-1.1924762706161167,0,0.0,0
0.6625,0.9008257244836784,1.5612273912652037,0.7579564967248947,0.8282226426856326,1.2408770559515878,2.2252820049311315,0.8802227502800204,0.8052934395611708,-0.4527292446069792,-0.8385248441445299,-0.3636511426432078,-0.8751372188773372,-0.47590818805501156,-1.044860121173066,-1.3670951539675855,-0.7060688767657672,0,0.0,0
0.7625,0.577660595143047,1.691003605327939,1.480250659231878,1.0045070465263364,1.0331351033181193,1.5933675028719458,1.3354997319174986,0.7385768132778955,-0.8757922389252664,-0.42309625955993646,-0.007826013601827515,-0.6993500238743825,-0.8325767061809682,-1.3360865583983326,-0.9598256032203426,-0.7520033373019246,0,0.0,0
0.8625,1.5275438770331806,1.7161640264091498,2.8949565557469614,1.584719192910751,1.1955629569393151,1.4679404916777261,1.7303679759485333,1.971308807084324,0.6086522534615935,0.010314321641820072,1.5760748347554006,0.2974151138651476,-1.1579051006779586,-1.409003893094962,-0.25768655204889607,0.5479212726918139,0,0.0,0
0.9625,1.5737073302087503,2.63241961600068,2.684212899950326,1.4779292272862412,1.3889733791421304,2.833656919374696,1.7529477103624507,2.9159467891775943,0.6723764994807163,0.3831613515971074,1.1055002198181667,-0.10685247891867634,-0.818325586383256,-0.8629341173886822,-0.12007221844044855,2.2973059606729125,1,0.125,0
1.0625,0.9964430175791906,5.121434672138809,2.994927345160371,0.9594800557194991,1.5505829893727676,6.171876071938335,2.1247370586219048,2.6850490465491594,-0.22474918089571078,1.720233416208871,1.2093699831322962,-0.7967521612290711,-0.49842678220914644,0.48140119291217276,-0.030469823374696715,1.9071537988285676,2,0.25,0
1.1625,3.7464942980018607,6.653701231639114,4.844310124252642,1.7002761403847093,2.6239196681072725,9.720960166604149,2.2886987833242314,3.9210704136775143,3.543067764841557,2.919630981401133,3.92181918649801,0.4006522417842804,1.1031637801876253,2.0770610224515225,0.3369371686017908,3.3553995643185948,5,0.625,1
1.2625000000000002,6.513975496327662,9.365629175779212,5.479480457718153,2.264799465413116,2.93358745294959,10.520769655982509,1.841186941366823,5.3433822183020245,9.623173710719799,4.718374134171876,5.011245397387893,1.4385638065162658,1.7644857531600642,2.4898274515990164,0.22304132650838313,5.757831889832426,6,0.75,1
1.3624999999999998,7.4497861255101805,14.26277245794648,7.135370320931347,3.4979885787141307,2.8386060684881653,11.640297593179803,3.2475077317465195,4.896814511712204,11.759452565537345,8.349972715741385,7.002637451566696,3.348665199352238,1.5840308248566848,2.9603451038673176,0.9169466192151019,5.042674750799987,7,0.875,1
1.4625,7.0576448660001905,15.390116312669424,8.650310978865654,5.009108962060235,3.8371881843878572,12.778261203605568,6.512628800884497,3.910295283090424,11.024443499721064,9.320197080990782,9.210495340405911,6.208335406911853,3.2396723023225884,3.488111998956504,3.559764753556121,3.7613845178640175,8,1.0,1
1.5625,6.186441980401843,14.670315558367715,8.212293786956389,4.740185498552725,3.9014813277454143,10.116768910016125,7.937193568857036,3.6169745827016193,9.245785184249243,8.77521129797812,8.582277334269854,5.543014820270911,3.4016997269501457,2.2097785790738804,5.135752826688094,3.3684733977609387,8,1.0,1
1.6625,4.814216124186501,15.350182342291143,6.405226107834724,2.95030618230257,2.750487270911037,6.773631641820319,6.628073333497507,3.0114328058970643,6.656659918091428,9.244249703092324,6.072240291356893,2.328229776527306,1.4658014466109366,0.9665406642541048,3.8154775906924145,2.4322599805005165,6,0.75,1
1.7625000000000002,4.299891528822385,14.146461506637921,5.284245912849636,1.6180791281255658,1.7062687052763699,4.948912334223283,5.6324658117739395,2.418275406967223,5.90336221591785,8.096666338593362,4.802290724238102,0.34543027139867205,-0.25399265391924586,0.4834477840913259,3.074006790547638,1.6407638315156605,4,0.5,1
1.8624999999999998,3.880449851754195,9.504016623312012,4.87814979318129,0.9070429412921879,1.880231988822567,2.3281383705478436,5.151893551518167,2.341088473368572,4.930907794653683,3.954884866511859,4.203538011092217,-0.174448805664123,-0.01354603115481929,0.09323694444232963,2.5403679166765456,1.5305607249719448,4,0.5,1
1.9625,2.3024927216914044,3.9344454603725025,3.3076842029595337,1.3448510060046879,2.3221889589226286,2.914065681877029,3.2538885890915132,1.7753708217276196,1.8957863165507232,0.8473934678342981,2.12289134419747,0.3883322471797531,0.8611602481652993,0.12854851003394865,0.7204608756046291,0.8230260020013778,3,0.375,0
2.0625,1.2208038246376973,2.8342828258135544,1.7609758467715055,1.9447427103374786,2.6557301268457825,8.404187914241621,3.6974060659001564,0.9267124466259741,0.4461964193721783,-0.16630584605790547,0.33120347403012856,0.974499093309473,1.3037824941007607,1.5191458851001027,1.0543046447562248,-0.18151506949711288,0,0.0,0
2.1625,1.087488877825691,1.2351526566826816,1.1183312249496644,2.3840144172297726,2.7663444689936982,8.498941491144073,4.331971147436765,0.6835788720903567,-0.015794017792900256,-1.077121511808926,-0.24701251173190447,1.5837252029238287,1.5100872762616688,1.575710939540818,1.8179057734463293,-0.5027727685615361,0,0.0,0
2.2625,0.6193722931004229,1.4884299520625477,1.5414782073725881,2.5223794202262346,2.9287634496978576,7.531092937665062,3.3345962198205106,0.6920609752712173,-0.7694475705591719,-0.8804258588410377,0.1746313669536174,1.8547456789810852,1.7758730251032617,1.2728837255329926,0.9234701265944829,-0.1552375031292406,2,0.25,0
2.3625,0.7305617087697999,1.4554078609036745,1.5052795553744354,1.7305724429450502,2.694616891514041,8.865818711450228,3.280734346998082,1.1622817665133054,-0.7247402069752065,-0.44056672968827437,0.025454395964806475,0.10023418457977427,1.435190038048999,1.7885812693968282,0.873080970461958,0.28470595344933064,0,0.0,0
2.4625,0.8099646776739802,1.337736963698157,1.035303736222182,0.6335167823715968,2.0736065783403235,6.328084316999482,2.7812660864256555,1.132002364705073,-0.5651736043900075,-0.42013980308272486,-0.7262367874145828,-1.4345848920778197,0.598455360940475,0.6774764712383985,0.4264842400650542,0.051045115054565784,0,0.0,0
2.5625,0.7242310300235201,1.3867800660124334,0.8123258835661051,0.7498327214806331,1.7296500861164388,3.089422940878703,1.5806657883417154,0.5208870463348747,-0.5503056601887724,-0.45941268651732464,-1.0083168541501153,-1.2538794395420099,-0.14552540048515084,-0.6518785373159769,-0.5367347298614087,-0.8669650639737072,0,0.0,0
2.6625,0.6165185782383292,1.2667177636271578,0.7493211832334761,1.0708985499642432,1.178871045555661,2.531359536586432,1.3101893539885259,0.4497875521199357,-0.3467464010193598,-0.6620921184402426,-0.5683708285950495,-0.4530204769603216,-1.058817996276008,-0.7737767180081725,-0.491204374137711,-1.251841698116469,0,0.0,0
2.7625,0.5624114171682918,1.087694122848835,0.7990906105797035,1.6346774327037283,1.2732889378112333,6.649995492163002,1.093757251441625,0.6119330463345619,-0.6398094888594631,-1.204195994908527,-0.15787302704237285,0.5159612348755275,-0.5160588102624714,0.7618418799619004,-0.6889556141998567,-0.5758019176631811,0,0.0,0
2.8625,0.668476585965848,0.7669042295972761,0.6697067019084644,1.7644707307486203,0.9454755858416408,7.616880567449292,2.1374905633023378,1.2919757132451524,-0.8655564615978261,-1.4343786392826177,-0.08257371489887819,0.6842459973154718,0.046420699341378754,1.2876236631189364,-0.2891919638402672,0.3359625341503926,0,0.0,0
2.9625,0.7773050079619299,1.1214986722064293,0.8009135752133952,1.306278142620406,1.6843314357595953,4.327070174268214,2.1450782804047286,1.2611196934576676,-0.6327304333716739,-1.210299810993308,-0.3103462016205626,0.05683471360929625,0.5073486401464681,0.38054896536473914,-0.14741439090605135,-0.14945229428164897,0,0.0,0
3.0625,0.8077299000937679,1.2779778085425009,0.9109460579907741,0.6938423964885528,2.329472688942934,1.6276602834457625,1.1526129097630384,0.46356079666768346,-0.572846612485227,-1.0538442516622577,-0.9192410919588773,-0.18161912485364703,0.9558808296415119,-0.103352663254862,-0.9298551315243025,-1.1772043474354903,0,0.0,0
3.1625,0.7321494230295419,1.1818170561812065,0.7507266210129528,0.7287917697383371,1.83332501508686,2.4955145562953724,2.647355209431344,0.6649830335721637,-0.6545531521918412,-0.9444160274989127,-0.8911667306751332,-0.18935022185803174,-0.0873090575886312,-0.30333598545977425,0.10229891129743977,-0.9791327562101186,0,0.0,0
3.2625,1.8704685373881809,2.678894049285903,1.3406813582372363,1.0198840528877469,1.4858528165674172,4.829589058051657,3.384455412182254,0.8015468222466166,0.8074792934799189,-0.016528771525999318,-0.029059135541421918,-0.44286408553138257,-0.44754207645444943,0.15982791475534902,0.9974224063170274,-0.44473339332039624,0,0.0,0
3.3625,3.3089054083631266,3.212719066300583,1.9116822372876239,1.0875453871825058,1.8316163224436508,4.607474822632875,3.2504553114679733,0.9547098946016405,3.728308107091566,0.503648375541144,0.6223006452715665,-0.16411548250172975,0.4621860831184888,0.3778406472238607,0.8987564606068207,-0.040632027403152055,2,0.25,0
3.4625,3.33256938936931,4.099479355150761,2.418735732067993,1.333744483258322,2.862757221643022,2.294882055366775,2.7071654768439646,2.0577374943554774,3.8907921703679103,0.8538604673569575,1.0561217379247356,0.21041087807410888,1.8089619138915953,0.069988487073624,0.42472596553633246,0.9924064510636669,3,0.375,0
3.5625,6.078858682403893,13.412398722744866,7.357317502429315,3.531333412038746,3.583550980172737,6.267531565863816,4.066089477615305,5.253069705361105,7.7163157389622254,6.347843240164432,6.052923203881018,3.021378419984391,2.9353993470268382,0.8649687080114232,1.3573962386711989,4.95978220260895,6,0.75,1
3.6625,7.14737918241644,15.721204175775188,11.084214181961212,5.452623421854427,3.7265935423168015,6.746374215172089,4.969001648090734,6.06220997331686,10.382212906271688,9.216430598459755,12.200714013020015,6.985800028096474,3.1703395212987693,0.775296146479036,2.399511207926844,6.762538158732076,7,0.875,1
3.7625,4.7729464069098,12.74447980359013,12.45179740178423,6.689589478385093,4.060834107939366,5.942948543695186,4.737686909482268,5.375926016073867,5.987829800009235,7.307716085642412,14.197934945165706,9.223346788943033,3.7260537391032007,0.45591534469413714,2.165808434077852,5.850786223614015,7,0.875,1
3.8625,5.291908098326527,14.199440812878306,12.43323765632226,7.342522084288717,3.813813500963463,8.74198120427282,5.856806836669049,4.593456798440041,6.898710568213871,8.365073150719642,14.160668181872484,10.435637184235018,3.2197159203195214,1.6823076052411483,3.1803493453943967,4.50050404277924,7,0.875,1
3.9625000000000004,8.673786641944208,18.152287884377454,12.717253243010902,7.510469752868769,5.359107913853603,13.521971055689516,9.681951047032369,4.442515994205507,13.430183684086689,11.205731064307209,14.51976795073694,10.755747711826892,5.220957811263889,3.661989763658039,6.462851716839799,4.324846755715567,8,1.0,1
4.0625,8.00379876681966,23.068131855920495,11.824747334755502,6.775102014309767,7.235565671569127,16.110243949927412,11.405673143443552,4.546760759758201,11.588204590210541,14.991937107467264,13.120478250782973,9.249381833649212,8.958947792889537,4.927147656497879,8.40398321043379,4.4683984408459825,8,1.0,1
4.1625,4.22960044887662,21.68856781741873,8.54964207852182,5.192529974071562,7.613476270659338,17.897237146505212,10.73196665857536,2.938396359771922,5.339740325321012,13.72450179642281,8.78757720330359,6.446948732665192,9.67126656099244,5.679697268978007,7.64914252662173,2.2339392769381816,8,1.0,1
4.2625,4.853645899865786,15.052081099749099,7.685245222564545,4.63654067328033,5.844700269824655,15.516384660393042,8.555978260523691,1.890247830770084,6.548672043486388,8.889487841217125,7.89726812550953,5.630646143751502,5.850792434536081,4.333312662440807,5.227636589275829,0.8080760568645645,7,0.875,1
4.3625,6.579699246118181,13.395653806078291,10.845460987345705,6.017397298525527,4.49839284764292,13.551729301632331,8.861202540685026,3.0899103873906597,9.96904423527391,7.745621969374311,11.799097545322722,7.900082817700219,4.163272039368505,3.5747136138085955,5.619421406163433,2.128638902342023,8,1.0,1
4.4625,7.620664855073163,15.687486383042545,11.392835669788296,5.921047430208776,4.87925480631068,17.340372834398654,10.041056687524424,4.295442254138983,12.074578411658042,9.464956977218383,12.639053032999687,7.671092237674244,5.031876679201841,5.327622827923002,7.050344804004296,4.322128882711679,8,1.0,1
4.5625,6.467443840600413,13.628638184990908,8.243946740942683,4.094586618329731,3.8246764441164856,13.40538004015285,6.551619580188405,3.357745652392154,9.227479595436037,7.432141024479644,8.213350563833085,4.56624751673712,3.2806153709828676,2.9119989299199913,3.154303658071995,2.5454917522488385,8,1.0,1
4.6625,3.1918860248704557,6.470260810405057,4.598263149968262,3.017490838267191,3.5581222105302794,4.169524727209742,2.2305678428996636,1.3599386441148167,2.7069031867227364,1.7302479145616676,2.9790800321018036,2.6221393145241993,2.8782624312756924,-0.45341770617753724,-0.31474170021416403,-0.08229770081329436,5,0.625,1
4.7625,0.7606698485912284,1.1285832091868295,1.2414666086230224,1.7531821466429511,2.867015268950427,1.7490678853574326,1.020645886256784,0.8165585570372661,-0.695578594484406,-1.1018365022268535,-0.4955304487154397,0.28105739276190983,1.7501309236545057,-0.5065702068393804,-0.6243458404946822,-0.6854373245807408,1,0.125,0
4.8625,0.4885135777339879,0.7672978082265854,0.6004817488667039,0.6492220080019792,1.4482432435974055,1.4412770448121948,0.8399612953963844,0.8685440844414175,-1.0561679016071241,-1.4194412515073813,-1.2833417026637561,-1.4126682439904579,-0.3577246624796041,-0.180395497348213,-0.8357846533374897,-0.5972785120205786,0,0.0,0
4.9625,0.9010710085232189,0.9767415556870267,0.5065564676864086,0.45616301949183846,1.1314182691495165,3.008236103367828,2.1731382730086195,0.8373185302355879,-0.3049293139913495,-1.3041460961552793,-1.4063420850250952,-1.748031060628091,-1.2211023609035738,-0.380596882663949,-0.5202427085021845,-0.4776738629644664,0,0.0,0
5.0625,0.9864465003615919,1.3754516778272274,0.5524921801256889,0.6646817507133839,0.9251051955950619,7.0956714598642545,4.498330618177738,1.3674743593044991,-0.17390944243343498,-0.728269346167806,-1.348590242703935,-1.4337077293207785,-0.7298538397233924,0.8023087434174266,1.7337961348778799,0.17713367344034026,1,0.125,0
5.1625,0.9405304991043505,1.4017460626872773,0.8972946741326571,0.9537250166048277,0.8807531989701629,6.853887183429138,4.116932377996926,1.3433585536384751,-0.1727208595145883,-0.688057207936743,-0.9337375786567776,-0.9036565015305393,-0.801137739148305,1.0661936346597642,1.1222355104076898,0.32590814590498285,0,0.0,0
5.2625,0.9173877847645266,1.1925830332509695,0.9221929075778749,1.0910308452367563,1.1780467598537168,2.6203490069028703,1.5012473882870983,0.766266368274826,0.21501833196928644,-1.1045530983139202,-0.8878336753580904,-0.33143557972794935,-1.1921495673252063,-0.056845323436633455,-0.6744609182813192,-0.37545788468788815,0,0.0,0
5.3625,0.6959272053654557,1.1140376362507822,1.0557404894711115,1.6830333789032341,1.35489234479541,3.4838278782665886,2.6164547430713787,0.7785799180136819,-0.07848312989892652,-1.1632104840269604,-0.6191532006118019,0.574454684695977,-0.8672272860475343,-0.03235605762403945,0.2079899781966288,-0.7283455202386965,0,0.0,0
5.4625,0.7051208694716898,1.3527008656627082,1.1425579391675673,1.7095097538860144,1.1918458044656137,3.455431227461652,2.629113671234014,0.7824983736976113,-0.5078982591594644,-1.002156153858529,-0.20141339384880008,0.4110158095776017,-1.1927195268892015,-0.07809312156648925,0.30456196771248667,-0.718042722931634,0,0.0,0
5.5625,0.6381795318221667,1.7028986034363383,0.8943760342127648,0.984174682907638,1.1629919560005462,2.8150957897115036,1.5734260832114433,0.7492781217020135,-0.5275831048905492,-0.7281842301444208,-0.6300460140298453,-0.40316564054382936,-1.1171538021748442,-0.4026362215035257,-0.531178254296921,-0.7691931780257193,0,0.0,0
5.6625,0.5871166503119589,1.919087007905509,0.7973553575091933,0.6879396833544643,1.1919930772001006,2.2207027573822775,1.2415280202622208,0.7522480635979065,-0.6136203578980663,-0.5688995673382952,-1.0231436269941476,-0.6465197922089112,-1.0491293312744703,-0.23788517518138513,-1.1075909480779835,-0.7667085584963188,0,0.0,0
5.7625,0.6122572994788084,2.1059550294056475,1.0555688649161368,0.546658776782805,0.8861404436851531,1.5044215848215399,1.0773514969421472,0.776835872005296,-0.8833397743088782,-0.40382843430926596,-0.7103647310535246,-1.3346968763849036,-1.718545277707725,0.017403404527749747,-1.2159517992457978,-0.6591241953592645,0,0.0,0
5.8625,1.4834610412066078,5.459062621797495,2.3924028413555933,1.4341829329822098,2.64073971360435,6.855718580138875,2.5964902766508158,1.788727646032927,0.39432219574251937,1.5698020567884405,0.8413691072515725,-0.44990913259212173,0.4168962268926694,1.0450902816469243,0.09450368279508797,0.468649839531958,1,0.125,0
5.9625,2.351488621168522,6.339026371499053,2.8771038681478913,2.0990177961905876,3.1082589852581775,8.405647072656595,3.464978635409854,2.906018169179141,2.2287309077491972,2.561964851484226,1.6636927967339599,1.152128231756742,2.0393155190861374,1.5735033348621403,1.0982943926536546,2.280713462373066,4,0.5,1
6.0625,4.660713822609078,5.690859664407813,3.2300459879492287,2.068833744036331,3.3498866242778327,13.018686374212155,6.382799962987252,6.427205989140767,5.909101742967972,2.131047070203594,2.061302602683038,1.0916994481094608,2.392383280139612,3.0988424768805425,3.217251306578464,6.465077589091508,7,0.875,1
6.1625,5.548230794940465,8.518954794519193,8.093402990570258,4.295348363693205,3.676757794963667,14.03057049297242,8.75227547356187,7.2342998410545825,8.093763408076942,4.106648971340883,7.223377729351755,4.068986586124415,2.8814848852803396,3.601452811669116,5.854788160113676,7.836274830951502,8,1.0,1
6.2625,4.526279331987455,10.121614415015904,9.678339424477505,5.065136030958941,3.14066077379093,10.45930020708246,7.789112234100201,4.178124895236047,6.250202358529825,5.499173277661339,10.100895697256352,5.998663488822058,2.1129481542955095,2.2472563807501063,4.854550340769356,3.075727282407035,8,1.0,1
6.3625,3.1579859639512295,8.31008857060385,6.732170326007079,3.674699740408251,2.4244025834040417,9.28351144337823,4.469344098641315,1.691880628397248,3.467217423935564,3.8775516040349216,6.1585708315632965,3.7064222829990587,1.1743619707705373,1.8592898405114822,1.6085954912938336,0.7124778662758599,5,0.625,1
6.4625,4.051893877254839,6.286864411932488,7.147189375431775,3.7501187096901303,3.571690188126922,9.576513379745764,4.190406370889369,2.6984602018139885,4.548553799245634,2.516131314215639,6.7301353668217,3.9551876904024454,2.520228454574984,1.8992679776149728,1.3796812100194265,1.8534106662476901,7,0.875,1
6.5625,4.843332834049173,6.215069004664692,7.75746898144967,3.8721929806209454,5.554955712975219,16.520672275612313,6.546973067331947,3.3640582168660877,6.418539319664866,2.580691463710804,7.792922903223005,4.151142470437128,6.060299456931395,4.684134265648281,3.7364947850684893,2.912139935993938,8,1.0,1
6.6625,4.021844091375532,9.714682321246071,7.6190395726039295,2.968111198651808,5.0926485842653255,16.279733407831493,7.8540332206805825,3.7362391033019002,4.768755617243435,4.4989765287858186,7.528098416853356,2.5086795828515225,5.187865288059077,4.558154050180324,5.072001165908613,3.475652030035005,8,1.0,1
6.7625,6.832230258481737,16.121544435706042,10.343953345985545,4.358849025648819,3.1588228460424244,7.636019230197341,7.414022454805194,4.035761198159952,9.221946299427799,9.225520015617144,11.076840917567118,4.5948227436803695,2.1796057930962065,0.8590916697035728,4.4739655413688055,3.8706401867058906,7,0.875,1
6.8625,7.967510938990387,16.38815204509385,9.756547058892398,4.785162098622039,3.51184280702707,6.459757567366743,5.676499787147398,4.0632803474919434,12.411496509307126,9.76989122825973,10.257780752210078,5.754946761844428,2.573421881098615,0.5827145895326615,2.812237875078645,3.8808822236473275,7,0.875,1
6.9625,7.507227651432822,13.364167738212405,8.14541813857681,3.9077898616688547,4.0116222807449855,10.287923547433437,5.65868339651421,3.606217990500658,11.73802438081568,7.877533055485786,8.485317378499857,4.319041186274993,3.4009356926966445,2.3745748011565957,2.9394696844862755,3.1858445547585417,8,1.0,1
7.0625,6.867585094270175,16.215948281445723,10.423418421293638,4.80740301587345,3.3982179108009656,10.02369264898365,6.112851452386589,2.6459416089863335,10.413456447739634,9.82824196534661,11.3808624941005,5.814033655471423,2.4579717196709545,2.227440611568754,3.512110645449604,1.8432435511199432,8,1.0,1
7.1625,4.482509997495315,16.664632286225586,9.800121206580119,4.846446583435211,3.0275007667275626,5.637800133250959,5.412703668877723,2.306443696500496,5.941359854467744,9.866252687225481,10.297427950917237,5.8938425569368595,1.9752410597238659,0.6893162400953494,2.8365621159111805,1.4803810400161403,6,0.75,1
7.2625,3.2190336074934676,11.681341913546097,6.486702479823946,3.639112964595173,2.9392080302276633,2.8992017023804273,3.638141095186489,2.261547430108842,3.880571021261953,5.88154034963839,6.217488163975466,3.791208054675757,1.8299556686727514,0.11690217635983748,1.016126595692981,1.4065823438581,5,0.625,1
7.3625,3.356550072798269,7.7398151831412525,4.487426587323296,2.6941650280529075,2.417330263648085,3.2794373294866213,1.7047841412866673,1.7728485582014013,4.1329378454441,3.726474721470944,3.5072964263797903,2.155942879413895,1.0608601940539513,-0.2999864047783113,-0.46155146783403916,0.7143555592072712,4,0.5,1
7.4625,2.7164422725678676,6.1603757087168525,2.264010293788163,1.6932002024465953,1.6696988748590704,1.8952783316053856,1.388624278580564,1.140117328480844,2.585000984285348,2.258249986998778,0.6068671109797712,0.44949795588316155,-0.23124458134665943,-1.0808390191631847,-0.9047878271256229,-0.3320063965493922,2,0.25,0
7.5625,1.1289270259144801,2.5483551603649666,1.4442652628349981,1.054727587355899,1.2018548175819634,2.502245599337463,1.9734744273221034,0.7845200244703073,-0.030029944158139497,0.16347060560418133,-0.142953319885661,-0.5197448422750389,-0.8016890861621465,-0.7005536696930325,-0.3926779739928152,-0.7553959480271434,0,0.0,0
7.6625,0.4548695309953071,1.2613181760541687,2.0089055702690213,1.2480514960756324,1.7382579583024256,2.990413195435577,2.151166556270843,0.8674799402780518,-0.37061198330041434,-0.20478281547788785,0.6116483776067408,-0.10053284814020509,0.0782907931662444,-0.2296449101678303,0.03988538129996291,-0.5356135445655764,0,0.0,0
7.7625,0.0,1.1846373571237094,1.7433339718433136,1.3562013243127216,2.15066819447604,3.9841153259828643,1.5051869640123883,0.5430244597613384,0.0,-0.6059159065662134,0.2557382582719069,0.3793144541468791,0.6382570311488013,-0.020171395355752436,-0.29869168802289175,-0.3021659091980098,0,0.0,0
7.8625,0.5213151714888331,1.0674879942300792,1.0286359155403877,2.1697339085048495,2.751063857615531,3.633455244739105,1.0856917930581989,0.6283484587869236,-0.25513762529101053,-1.2260752720140362,-0.6930571310024392,1.3191181095519255,1.4337104781502858,-0.5385266627631288,-0.9615660594470933,-0.2279821967478651,0,0.0,0
