Time,Fused_z,Active_binary
63.0,0.07669780334582668,0
73.0,0.08945278134418883,0
83.0,0.10089306806334006,0
93.0,0.11024641425579906,0
103.0,0.1174941427972721,0
113.0,0.12316282383350746,0
123.0,0.12810299561536823,0
133.0,0.1334956439262256,0
143.0,0.1391799781402278,0
153.0,0.14714035380386517,0
163.0,0.15408166539800852,0
173.0,0.15972709722171102,0
183.0,0.16395078253365764,0
193.0,0.1668774306942749,0
203.0,0.17176351105419482,0
213.0,0.17828875241975473,0
223.0,0.18527318040988416,0
233.0,0.1923081159108562,0
243.0,0.19946338848082185,0
253.0,0.2067000518759324,0
263.0,0.21391299439342593,0
273.0,0.220973273957983,0
283.0,0.2291426036557842,0
293.0,0.24044356482307425,0
303.0,0.2618400409306849,0
313.0,0.28016529270924256,0
323.0,0.29411123750152945,0
333.0,0.3027753273847713,0
343.0,0.3058295071171792,0
353.0,0.3036210073383978,0
363.0,0.29715432343936776,0
373.0,0.2879289542572732,0
383.0,0.2776507159660081,0
393.0,0.26788075462975997,0
403.0,0.25971462981336063,0
413.0,0.2546721307136634,0
423.0,0.2535918285662142,0
433.0,0.2530500482459702,0
443.0,0.2527522778507768,0
453.0,0.25269618043814157,0
463.0,0.2530884613372448,0
473.0,0.2541811607426573,0
483.0,0.2561590836087896,0
493.0,0.2591370823029492,0
503.0,0.2632061006654032,0
513.0,0.26840573140042623,0
523.0,0.2745749167886743,0
533.0,0.2811864385099639,0
543.0,0.29074207495542026,0
553.0,0.30031582370079535,0
563.0,0.3063098294099224,0
573.0,0.30750692432465987,0
583.0,0.3035576012868632,0
593.0,0.2952081134585925,0
603.0,0.2842959609814746,0
613.0,0.27777058267701815,0
623.0,0.27225713629019416,0
633.0,0.2723455323279054,0
643.0,0.2768325628360219,0
653.0,0.2842369423838872,0
663.0,0.29275691424944716,0
673.0,0.3007377440177421,0
683.0,0.30716714340147244,0
693.0,0.31180982097309196,0
703.0,0.3150535486002205,0
713.0,0.3175752659748886,0
723.0,0.3199595348031067,0
733.0,0.32242633526799885,0
743.0,0.3247832031698045,0
753.0,0.32658606302420534,0
763.0,0.32736369604299664,0
773.0,0.3267456515670248,0
783.0,0.32445397102754214,0
793.0,0.3202939148928117,0
803.0,0.31596274869061103,0
813.0,0.315411137218613,0
823.0,0.3172731970601714,0
833.0,0.3253991901421451,0
843.0,0.3396309682774011,0
853.0,0.37570467874311153,0
863.0,0.42695581547669126,0
873.0,0.48903621962358773,0
883.0,0.5562782495918003,0
893.0,0.622392891177116,0
903.0,0.6793839029964626,0
913.0,0.7252468572545541,0
923.0,0.7605097909635747,0
933.0,0.7822156206624022,0
943.0,0.7941324697029435,0
953.0,0.7999812154538098,0
963.0,0.8025950896252824,0
973.0,0.8036880040261771,0
983.0,0.8041041057995075,0
993.0,0.8042400537636438,0
1003.0,0.8043722081477058,0
1013.0,0.8047776489280221,0
1023.0,0.8056804333036363,0
1033.0,0.8071390532515647,0
1043.0,0.8090137909659565,0
1053.0,0.8111003982602473,0
1063.0,0.8133945126850722,0
1073.0,0.8163209625355022,0
1083.0,0.822468908856842,0
1093.0,0.8331591245642043,0
1103.0,0.8450912024221513,0
1113.0,0.8574013110384787,0
1123.0,0.8678537810168563,0
1133.0,0.8732007613702651,0
1143.0,0.8736662840787969,0
1153.0,0.8616032561261874,0
1163.0,0.8362107564132818,0
1173.0,0.7995192263081867,0
1183.0,0.7560027239850744,0
1193.0,0.7180385013415788,0
1203.0,0.68495009236337,0
1213.0,0.6586603569375395,0
1223.0,0.6625028332907148,0
1233.0,0.6671822860613892,0
1243.0,0.6704363423656758,0
1253.0,0.6714941753889796,0
1263.0,0.6708122040384525,0
1273.0,0.6693291938595075,0
1283.0,0.6676890016624668,0
1293.0,0.6657858734499121,0
1303.0,0.6627454094755967,0
1313.0,0.657938005912996,0
1323.0,0.6534153789259725,0
1333.0,0.6440855178377387,0
1343.0,0.6288448857226969,0
1353.0,0.6071777734701405,0
1363.0,0.579155147277362,0
1373.0,0.549425674098037,0
1383.0,0.5194070459517438,0
1393.0,0.48573942213116117,0
1403.0,0.4519457304629848,0
1413.0,0.41792907853190453,0
1423.0,0.3929827033012815,0
1433.0,0.37385460414641014,0
1443.0,0.35863399887084046,0
1453.0,0.3491585788262491,0
1463.0,0.34786795585735425,0
1473.0,0.34862600483470757,0
1483.0,0.35250653528675124,0
1493.0,0.35623027382295697,0
1503.0,0.35645154733774453,0
1513.0,0.3516919898128381,0
1523.0,0.3419704406420951,0
1533.0,0.32861545486561616,0
1543.0,0.31377328855720893,0
1553.0,0.2997099543742402,0
1563.0,0.2934598106872117,0
1573.0,0.2950072880103698,0
1583.0,0.298216180686829,0
1593.0,0.3011504824388578,0
1603.0,0.30244574126038126,0
1613.0,0.30167590237903374,0
1623.0,0.29931041848113943,0
1633.0,0.2963057815456495,0
1643.0,0.29355606427393977,0
1653.0,0.2915319037465918,0
1663.0,0.2902537586278635,0
1673.0,0.2894343536010343,0
1683.0,0.2886467855540069,0
1693.0,0.2875842719871947,0
1703.0,0.28634934912769267,0
1713.0,0.28912126665184873,0
1723.0,0.29903026803519794,0
1733.0,0.3072732690840164,0
1743.0,0.3126810524712918,0
1753.0,0.3145857341456398,0
1763.0,0.31297800311183716,0
1773.0,0.30842049943619126,0
1783.0,0.30168396646744045,0
1793.0,0.2933304625555812,0
1803.0,0.28358574712000595,0
1813.0,0.2725676088593457,0
1823.0,0.2606192741925519,0
1833.0,0.24851690165630277,0
1843.0,0.2440816923552239,0
1853.0,0.2494309312630526,0
1863.0,0.25872023182063775,0
1873.0,0.2706634126583112,0
1883.0,0.2827509791460157,0
1893.0,0.293770962244937,0
1903.0,0.3028849953245314,0
1913.0,0.30997645903290055,0
1923.0,0.315653224219845,0
1933.0,0.3208450014721424,0
1943.0,0.3301891907003162,0
1953.0,0.3416914355922184,0
1963.0,0.3498410412825209,0
1973.0,0.3543863526530988,0
1983.0,0.35567775597736695,0
1993.0,0.3545323046568035,0
2003.0,0.35187776372255775,0
2013.0,0.3485154541373687,0
2023.0,0.3452552642189505,0
2033.0,0.34584752065171054,0
2043.0,0.3537308231967064,0
2053.0,0.3688238424423271,0
2063.0,0.39634566583586,0
2073.0,0.43462240838204264,0
2083.0,0.48188696987228913,0
2093.0,0.5491197243783059,0
2103.0,0.6306530491224802,0
2113.0,0.7202682730284355,0
2123.0,0.8145904726491081,0
2133.0,0.9101495781742972,0
2143.0,1.0035119578143854,0
2153.0,1.0996551959573884,0
2163.0,1.191069925073526,0
2173.0,1.2657239201835708,0
2183.0,1.3211525095073253,0
2193.0,1.3567963050507368,0
2203.0,1.3744472933957312,0
2213.0,1.3783769479515007,0
2223.0,1.374864037168115,0
2233.0,1.3709826806685839,0
2243.0,1.3728457161694818,0
2253.0,1.3838909618428838,0
2263.0,1.4039881001882404,0
2273.0,1.429897251911241,0
2283.0,1.456919734085382,0
2293.0,1.4808836650477006,0
2303.0,1.49950901077541,0
2313.0,1.5126986321555294,0
2323.0,1.521877404866649,0
2333.0,1.528831716785213,0
2343.0,1.534586898583091,0
2353.0,1.5387506115455483,0
2363.0,1.539491891531963,0
2373.0,1.534032950414678,0
2383.0,1.5193537050370172,0
2393.0,1.4928148556659435,0
2403.0,1.4525398020366835,0
2413.0,1.397555265962717,0
2423.0,1.327801186482132,0
2433.0,1.2644859389210503,0
2443.0,1.199862359181577,0
2453.0,1.127260945180866,0
2463.0,1.0806846162262829,0
2473.0,1.0295714663440374,0
2483.0,0.9792777455322242,0
2493.0,0.9361686965818479,0
2503.0,0.9055987548275529,0
2513.0,0.8895959853155585,0
2523.0,0.8855348625989339,0
2533.0,0.8867234472449665,0
2543.0,0.8847150032988148,0
2553.0,0.8721548837224574,0
2563.0,0.8449285416385947,0
2573.0,0.8031171192033608,0
2583.0,0.758042972732278,0
2593.0,0.7245721946396071,0
2603.0,0.695910515081009,0
2613.0,0.6876577581676386,0
2623.0,0.6912589268364034,0
2633.0,0.7177809651525379,0
2643.0,0.7554964610730028,0
2653.0,0.7981900549660291,0
2663.0,0.8418484225537415,0
2673.0,0.8848479221746379,0
2683.0,0.9344597639496466,0
2693.0,1.0116327606158564,0
2703.0,1.085979774259238,0
2713.0,1.1694430424696054,0
2723.0,1.2522732139250876,0
2733.0,1.3187649546708688,0
2743.0,1.3678053149909708,0
2753.0,1.40049708895287,0
2763.0,1.419833040694149,0
2773.0,1.4298727040320518,0
2783.0,1.4346690230904533,0
2793.0,1.4373232070617474,0
2803.0,1.4395069412208459,0
2813.0,1.4415671061083848,0
2823.0,1.4430516901810049,0
2833.0,1.4433509531840976,0
2843.0,1.4421908231618308,0
2853.0,1.4398469137910226,0
2863.0,1.4370568673222264,0
2873.0,1.4372287963703312,0
2883.0,1.4378792594299552,0
2893.0,1.4382538884949307,0
2903.0,1.4374111466348511,0
2913.0,1.4337325658444295,0
2923.0,1.425138149910599,0
2933.0,1.4094320280738009,0
2943.0,1.3896477156309666,0
2953.0,1.3649547875043027,0
2963.0,1.3401051383111757,0
2973.0,1.306349198425216,0
2983.0,1.2581682711374986,0
2993.0,1.1930304554954698,0
3003.0,1.1096391903145384,0
3013.0,1.0087206345031794,0
3023.0,0.8935762706949404,0
3033.0,0.7701934872641768,0
3043.0,0.6489775050586373,0
3053.0,0.5431687215695554,0
3063.0,0.4508161358120788,0
3073.0,0.3742957239718244,0
3083.0,0.3252528240043002,0
3093.0,0.29283690657842404,0
3103.0,0.26378486344876584,0
3113.0,0.23602560602906608,0
3123.0,0.20932649414235566,0
3133.0,0.18430892234630633,0
3143.0,0.1642725483719976,0
3153.0,0.1508598845041992,0
3163.0,0.14220790891945484,0
3173.0,0.1364145624148432,0
3183.0,0.1438611360905676,0
3193.0,0.15037587172668843,0
3203.0,0.1543236328336737,0
3213.0,0.15547975762977626,0
3223.0,0.15424696177393246,0
3233.0,0.1552721576918368,0
3243.0,0.15597740790253578,0
3253.0,0.15799733598448418,0
3263.0,0.16083031996969938,0
3273.0,0.16679333920985384,0
3283.0,0.17597392168520548,0
3293.0,0.18694045283549043,0
3303.0,0.19784912196449136,0
3313.0,0.206852624542882,0
3323.0,0.21429152315433753,0
3333.0,0.2223091671649398,0
3343.0,0.2277803408318712,0
3353.0,0.23132434888334352,0
3363.0,0.2437274011009365,0
3373.0,0.25745902485438005,0
3383.0,0.26975398217639296,0
3393.0,0.28048681643617807,0
3403.0,0.2892819795657851,0
3413.0,0.29565364235653885,0
3423.0,0.2992334852120393,0
3433.0,0.3000048708475362,0
3443.0,0.2984517556105378,0
3453.0,0.29554783319469685,0
3463.0,0.29255789757814876,0
3473.0,0.2907006959485896,0
3483.0,0.292885454346478,0
3493.0,0.29791103294834237,0
3503.0,0.3042445715865958,0
3513.0,0.3111963367947254,0
3523.0,0.31808273910544027,0
3533.0,0.3243879324791571,0
3543.0,0.32977105920049216,0
3553.0,0.33395715864570663,0
3563.0,0.33660628123882164,0
3573.0,0.33725571307636093,0
3583.0,0.3353812060768306,0
3593.0,0.3305635980150836,0
3603.0,0.32271523836467125,0
3613.0,0.31232007429537645,0
3623.0,0.30063889152255785,0
3633.0,0.2988200139698311,0
3643.0,0.29793253637020944,0
3653.0,0.2964867138644739,0
3663.0,0.2948913110987049,0
3673.0,0.2977064328674331,0
3683.0,0.303416391322922,0
3693.0,0.313196081291723,0
3703.0,0.32234146079342985,0
3713.0,0.32558985713239796,0
3723.0,0.3253266436970877,0
3733.0,0.32877071873774916,0
3743.0,0.32858177256850746,0
3753.0,0.3253236085046167,0
3763.0,0.31955720245986496,0
3773.0,0.31209729960939864,0
3783.0,0.3083395913865554,0
3793.0,0.30520060752436917,0
3803.0,0.30228419728169287,0
3813.0,0.2995720623043416,0
3823.0,0.29731186499684864,0
3833.0,0.30019721748316136,0
3843.0,0.3077917526022414,0
3853.0,0.3225265365929448,0
3863.0,0.34592648010178395,0
3873.0,0.3835883904460128,0
3883.0,0.423246966552151,0
3893.0,0.458192929483219,0
3903.0,0.4828268105938446,0
3913.0,0.4951755294315957,0
3923.0,0.4984332203261084,0
3933.0,0.5009318705990715,0
3943.0,0.5136259984102227,0
3953.0,0.5451620810501412,0
3963.0,0.6007724828991845,0
3973.0,0.6872640402333507,0
3983.0,0.7776406606821841,0
3993.0,0.8568275126382077,0
4003.0,0.9135699188982149,0
4013.0,0.943638801601275,0
4023.0,0.9515415972483559,0
4033.0,0.9505087695090858,0
4043.0,0.9596523566872497,0
4053.0,0.9973657519914861,0
4063.0,1.0732615246885144,0
4073.0,1.1842443186645149,0
4083.0,1.3174332167301235,0
4093.0,1.4565942637086229,0
4103.0,1.587395495289179,0
4113.0,1.699789001993927,0
4123.0,1.7882448325649194,0
4133.0,1.8509949518316315,0
4143.0,1.8890816266526058,0
4153.0,1.9056181962382,0
4163.0,1.9053634844140976,0
4173.0,1.8944570892109964,0
4183.0,1.8799954506021854,0
4193.0,1.8691268159568992,0
4203.0,1.8887110561669913,0
4213.0,1.9317983393493992,0
4223.0,1.982216904964769,0
4233.0,2.032566593614666,0
4243.0,2.0747807020103757,0
4253.0,2.102165813732992,0
4263.0,2.111160550408408,0
4273.0,2.1023957717364774,0
4283.0,2.0809039744179474,0
4293.0,2.055421436816541,0
4303.0,2.0367457973177974,0
4313.0,2.0352521054589685,0
4323.0,2.073305549713554,0
4333.0,2.1480308774257333,0
4343.0,2.2469787415863873,0
4353.0,2.358610131250279,0
4363.0,2.4689305519155798,0
4373.0,2.5848161387374478,0
4383.0,2.6947281874325864,0
4393.0,2.772465800889452,0
4403.0,2.854740307107696,1
4413.0,2.900390096749125,1
4423.0,2.9169171234908418,1
4433.0,2.9177376405446624,1
4443.0,2.9161963446226307,1
4453.0,2.9217219723817274,1
4463.0,2.937497934028203,1
4473.0,2.9606762118565886,1
4483.0,2.9848503354306692,1
4493.0,3.0033724884239,1
4503.0,3.0119694899242617,1
4513.0,3.009833736954869,1
4523.0,2.9992307219899983,1
4533.0,2.984188920963312,1
4543.0,2.968957702707803,1
4553.0,2.9567639864400324,1
4563.0,2.9491120147299923,1
4573.0,2.9455841384771433,1
4583.0,2.9439263885582934,1
4593.0,2.9401922061781827,1
4603.0,2.928843548227286,1
4613.0,2.902891797162668,1
4623.0,2.8543028123276057,1
4633.0,2.7749039571896006,1
4643.0,2.657888381515689,1
4653.0,2.4997765456364567,1
4663.0,2.302485966316082,1
4673.0,2.0750570444669743,1
4683.0,1.8345236658262598,1
4693.0,1.6107989588046698,0
4703.0,1.4250873640660378,0
4713.0,1.3123685208756577,0
4723.0,1.2635402503413542,0
4733.0,1.255536226205683,0
4743.0,1.2596283817587703,0
4753.0,1.2503313212575018,0
4763.0,1.2117780719472253,0
4773.0,1.138345111626165,0
4783.0,1.0327295156678016,0
4793.0,0.9081503586506181,0
4803.0,0.7756756983508335,0
4813.0,0.6464873649167077,0
4823.0,0.5310780612420476,0
4833.0,0.44022168610268053,0
4843.0,0.385074602770861,0
4853.0,0.3516301869031149,0
4863.0,0.3472687028396772,0
4873.0,0.34746685277190004,0
4883.0,0.3489457669603078,0
4893.0,0.3493617419700163,0
4903.0,0.3472074935052353,0
4913.0,0.3443827695055294,0
4923.0,0.34199366170862083,0
4933.0,0.34371520972632646,0
4943.0,0.3443609492422145,0
4953.0,0.3442094210280565,0
4963.0,0.3435313772270798,0
4973.0,0.34334679473356094,0
4983.0,0.34528692822365514,0
4993.0,0.34627788154599287,0
5003.0,0.3453789203704706,0
5013.0,0.3420804201102106,0
5023.0,0.33628012900026455,0
5033.0,0.328065971522243,0
5043.0,0.3203598930238594,0
5053.0,0.3181316986819256,0
5063.0,0.31459969424730844,0
5073.0,0.30858415976841924,0
5083.0,0.2991671284077221,0
5093.0,0.28596654249229386,0
5103.0,0.2692508977696053,0
5113.0,0.24988907781817288,0
5123.0,0.22917418014528046,0
5133.0,0.20857485707841952,0
5143.0,0.19502523764150675,0
5153.0,0.1885099897233507,0
5163.0,0.18234230867835774,0
5173.0,0.17626403307151234,0
5183.0,0.16994671062597697,0
5193.0,0.16312319359240254,0
5203.0,0.15568669489794368,0
5213.0,0.1477279950096713,0
5223.0,0.14517258693448223,0
5233.0,0.15384034021046558,0
5243.0,0.16254849576881528,0
5253.0,0.17053515354285537,0
5263.0,0.177104796102396,0
5273.0,0.18173804178902175,0
5283.0,0.18417268950838542,0
5293.0,0.18718600231183327,0
5303.0,0.18816646737081713,0
5313.0,0.1896141317418265,0
5323.0,0.19519928727640368,0
5333.0,0.19814547106894706,0
5343.0,0.19773718781703364,0
5353.0,0.19374947930995698,0
5363.0,0.18657804188610017,0
5373.0,0.17729292639251898,0
5383.0,0.1706474560344382,0
5393.0,0.17585774672369775,0
5403.0,0.18526984461754895,0
5413.0,0.1982720684240378,0
5423.0,0.21391284890523965,0
5433.0,0.23062116037833608,0
5443.0,0.24669325428249986,0
5453.0,0.26082721708808887,0
5463.0,0.27250256947910206,0
5473.0,0.2820937490150434,0
5483.0,0.2995419882806812,0
5493.0,0.31747503871485233,0
5503.0,0.3326283379673107,0
5513.0,0.34507865856729186,0
5523.0,0.36216206904428905,0
5533.0,0.37987423279081295,0
5543.0,0.3954679278894867,0
5553.0,0.4093348661187847,0
5563.0,0.42188327966151573,0
5573.0,0.43350048024725907,0
5583.0,0.44445164594374476,0
5593.0,0.45473440626228845,0
5603.0,0.46398742585595776,0
5613.0,0.4715853686507703,0
5623.0,0.4770004843842033,0
5633.0,0.4925548936845143,0
5643.0,0.513028413455035,0
5653.0,0.5351304167967553,0
5663.0,0.5606718468135015,0
5673.0,0.5927674954436162,0
5683.0,0.6351225378178318,0
5693.0,0.690438603920495,0
5703.0,0.7646946626171125,0
5713.0,0.8426043301528945,0
5723.0,0.9311037001595782,0
5733.0,1.0194986797714383,0
5743.0,1.093539576343348,0
5753.0,1.149432131426135,0
5763.0,1.186279280150265,0
5773.0,1.205859546653946,0
5783.0,1.2121288629678948,0
5793.0,1.2104560225373415,0
5803.0,1.2066196027481748,0
5813.0,1.2063291959446463,0
5823.0,1.2167138186486919,0
5833.0,1.2352401231135393,0
5843.0,1.2615043635008885,0
5853.0,1.295762812123772,0
5863.0,1.3503118806769652,0
5873.0,1.4222186191668045,0
5883.0,1.5073146628400362,0
5893.0,1.5992405067100548,0
5903.0,1.6883226763328798,0
5913.0,1.7638585656757284,0
5923.0,1.817689996883348,0
5933.0,1.847473900004816,0
5943.0,1.8618486617335859,0
5953.0,1.8693195561826537,0
5963.0,1.8747505559278153,0
5973.0,1.9039794540458375,0
5983.0,1.958400456585458,0
5993.0,2.029822027854862,0
6003.0,2.1042134353991937,0
6013.0,2.1659124187270566,0
6023.0,2.2033101320812465,0
6033.0,2.212406840796242,0
6043.0,2.197729328199275,0
6053.0,2.1706376390624937,0
6063.0,2.1582702657062924,0
6073.0,2.1548754692428758,0
6083.0,2.1546050668687498,0
6093.0,2.1572011049026596,0
6103.0,2.1704030403321632,0
6113.0,2.1855119615220207,0
6123.0,2.1926015580707974,0
6133.0,2.1909472952590825,0
6143.0,2.1814261675202022,0
6153.0,2.1643228142626283,0
6163.0,2.138111899350421,0
6173.0,2.106560512454911,0
6183.0,2.061964528321055,0
6193.0,2.0010736880492983,0
6203.0,1.9291447630230756,0
6213.0,1.8598748808975443,0
6223.0,1.8045330901527028,0
6233.0,1.7699281758389913,0
6243.0,1.7603074295645391,0
6253.0,1.7566577372450574,0
6263.0,1.750268237230804,0
6273.0,1.7196326117966985,0
6283.0,1.6522479537851,0
6293.0,1.5455141122844807,0
6303.0,1.407851635942661,0
6313.0,1.2574055689788868,0
6323.0,1.1181746591131123,0
6333.0,1.0129128670718444,0
6343.0,0.9532032108242483,0
6353.0,0.93210363089055,0
6363.0,0.9279769994452116,0
6373.0,0.9201763503468865,0
6383.0,0.8972707746840128,0
6393.0,0.8583950726861213,0
6403.0,0.8099258824104039,0
6413.0,0.7617895799015088,0
6423.0,0.7248456325301673,0
6433.0,0.6966724167254749,0
6443.0,0.6727852467718376,0
6453.0,0.6473874163977875,0
6463.0,0.6162157351055608,0
6473.0,0.5777767124621722,0
6483.0,0.5333158337817332,0
6493.0,0.48718692685149145,0
6503.0,0.44708337339576043,0
6513.0,0.4192406685389387,0
6523.0,0.3996644303733514,0
6533.0,0.38339374480604427,0
6543.0,0.36866251165601305,0
6553.0,0.3539120475859645,0
6563.0,0.35108941558277584,0
6573.0,0.34840635085990684,0
6583.0,0.34429328117313257,0
6593.0,0.3394616502640305,0
6603.0,0.334540539864272,0
6613.0,0.33341713764670766,0
6623.0,0.34675790780840643,0
6633.0,0.36099983467753866,0
6643.0,0.37517966076878395,0
6653.0,0.38829584349280394,0
6663.0,0.39941866935282305,0
6673.0,0.40772432420723415,0
6683.0,0.4125120941646959,0
6693.0,0.4132446063383006,0
6703.0,0.40961556833214663,0
6713.0,0.40163086880806564,0
6723.0,0.3896856022773515,0
6733.0,0.37461756669520346,0
6743.0,0.3577074559815533,0
6753.0,0.3405805556609168,0
6763.0,0.3249639343562767,0
6773.0,0.3135861562167226,0
6783.0,0.3072317459187266,0
6793.0,0.30303675622017373,0
6803.0,0.3033883966564296,0
6813.0,0.3051656856629278,0
6823.0,0.30537673400387016,0
6833.0,0.30374962141973405,0
6843.0,0.3006348771475711,0
6853.0,0.2968198470410477,0
6863.0,0.29308852446466405,0
6873.0,0.28967476940384485,0
6883.0,0.285937396999339,0
6893.0,0.28052084136619065,0
6903.0,0.27190897310173,0
6913.0,0.2590600970690869,0
6923.0,0.24189832009417794,0
6933.0,0.22157123277480184,0
6943.0,0.20041325017769135,0
6953.0,0.18152859537952357,0
6963.0,0.16793298723015643,0
6973.0,0.16778849268610888,0
6983.0,0.17245499154679994,0
6993.0,0.18209567425728113,0
7003.0,0.19069200397027158,0
7013.0,0.1967130236408648,0
7023.0,0.20310145692235063,0
7033.0,0.2130821961933919,0
7043.0,0.22741586032881567,0
7053.0,0.2569812354066837,0
7063.0,0.28875645248520393,0
7073.0,0.31708549607037273,0
7083.0,0.33740953938446017,0
7093.0,0.34754233662267364,0
7103.0,0.34854327328905965,0
7113.0,0.35357356732073525,0
7123.0,0.3569893570593493,0
7133.0,0.36401563003819626,0
7143.0,0.37654302069074336,0
7153.0,0.39274014413741143,0
7163.0,0.41405032064061276,0
7173.0,0.49519864702620064,0
7183.0,0.6275461373343805,0
7193.0,0.7957957379846856,0
7203.0,1.001663216802144,0
7213.0,1.2398781263552392,0
7223.0,1.4695874667592266,0
7233.0,1.6760138494453805,0
7243.0,1.8480655035771758,0
7253.0,1.9796424694960053,0
7263.0,2.070545017837649,0
7273.0,2.1267264587264636,0
7283.0,2.161543700683457,0
7293.0,2.182495012156738,0
7303.0,2.208426786685404,0
7313.0,2.244249465832212,0
7323.0,2.337651250726126,0
7333.0,2.4742146604489785,0
7343.0,2.6324411743878366,0
7353.0,2.777232182594767,1
7363.0,2.896720118655582,1
7373.0,2.986788416850966,1
7383.0,3.0491623621881856,1
7393.0,3.088805504497863,1
7403.0,3.1115857849484105,1
7413.0,3.122790586838724,1
7423.0,3.1266473007801507,1
7433.0,3.126531445085381,1
7443.0,3.1422316018080116,1
7453.0,3.157021240841293,1
7463.0,3.168918042060338,1
7473.0,3.174765751262522,1
7483.0,3.168772371342653,1
7493.0,3.1434882201797967,1
7503.0,3.0919661342168077,1
7513.0,3.010468403056579,1
7523.0,2.900866204104315,1
7533.0,2.771973393780468,1
7543.0,2.639123317334144,1
7553.0,2.5212095646402464,1
7563.0,2.4347481457208158,1
7573.0,2.3864848052844008,1
7583.0,2.369080497805806,1
7593.0,2.363787758231804,1
7603.0,2.348284722831137,1
7613.0,2.304296205067761,1
7623.0,2.2218090808858095,1
7633.0,2.0998614843074233,1
7643.0,1.9515031615204195,1
7653.0,1.8074322613534424,1
7663.0,1.695581430923444,1
7673.0,1.579329027005096,0
7683.0,1.4579441844193253,0
7693.0,1.3361500460130147,0
7703.0,1.219086801187176,0
7713.0,1.1111330079713069,0
7723.0,1.0222637389800495,0
7733.0,0.9386757514826215,0
7743.0,0.8865110766642117,0
7753.0,0.8446202874257429,0
7763.0,0.8038008832846284,0
7773.0,0.7674043555403978,0
7783.0,0.7361866179334556,0
7793.0,0.6963936774014214,0
7803.0,0.6644449074839531,0
7813.0,0.6346860577504313,0
7823.0,0.6002977964378644,0
7833.0,0.5599091086749846,0
7843.0,0.5238302470988693,0
7853.0,0.49371494171815195,0
7863.0,0.4573579709313449,0
7873.0,0.4196009495186913,0
7883.0,0.38596891844560244,0
7893.0,0.36158469611401967,0
7903.0,0.3467711112579478,0
7913.0,0.33618147252284813,0
7923.0,0.3276945971999377,0
7933.0,0.31786822963074,0
7943.0,0.30540501106350715,0
7953.0,0.290981154959539,0
7963.0,0.273280614202961,0
7973.0,0.25417971063668165,0
7983.0,0.2359904446140127,0
7993.0,0.22041635785823346,0
8003.0,0.2082301961433271,0
8013.0,0.1992833412030921,0
8023.0,0.18985187011691976,0
8033.0,0.1779736357837134,0
8043.0,0.16271796645406386,0
8053.0,0.14816251719132645,0
8063.0,0.13529795630110436,0
8073.0,0.12570918338251472,0
8083.0,0.12071282463942046,0
8093.0,0.12016699879062359,0
8103.0,0.12250074904775463,0
8113.0,0.12554672421419655,0
8123.0,0.12753687880092604,0
8133.0,0.127619076437783,0
8143.0,0.1258202572911982,0
8153.0,0.12271435903655536,0
8163.0,0.11910428919849278,0
8173.0,0.11586569004329922,0
8183.0,0.11384237161029748,0
8193.0,0.11365496963466507,0
8203.0,0.11552907335828427,0
8213.0,0.11934741702189278,0
8223.0,0.12488616147036516,0
8233.0,0.1320165548335545,0
8243.0,0.1407284964331669,0
8253.0,0.1509357839976581,0
8263.0,0.16218598119435026,0
8273.0,0.1735887054687819,0
8283.0,0.1840762303792286,0
8293.0,0.19273064563923886,0
8303.0,0.19895171818744076,0
8313.0,0.20248281540556717,0
8323.0,0.20338950681705678,0
8333.0,0.2020347531578364,0
8343.0,0.19904047444718287,0
8353.0,0.19521376575558058,0
8363.0,0.19143381706362855,0
8373.0,0.1885088295930391,0
8383.0,0.1870124732896976,0
8393.0,0.18984039134314,0
8403.0,0.19913287207202168,0
8413.0,0.20797001470044907,0
8423.0,0.21510747264834337,0
8433.0,0.21958863814454452,0
8443.0,0.2208905745970871,0
8453.0,0.21897275234492727,0
8463.0,0.2142282369972738,0
8473.0,0.20735839993942395,0
8483.0,0.1992095527042945,0
8493.0,0.1906208572229235,0
8503.0,0.1823254187883852,0
8513.0,0.17490335912786417,0
8523.0,0.16872460888517915,0
8533.0,0.16386006789539298,0
8543.0,0.16012126632019313,0
8553.0,0.15733956674662603,0
8563.0,0.15562597761499208,0
8573.0,0.1553006249220795,0
8583.0,0.15656892049447657,0
8593.0,0.15932835911299215,0
8603.0,0.16332750251833358,0
8613.0,0.16846539045955658,0
8623.0,0.1748661965975646,0
8633.0,0.1825652049868521,0
8643.0,0.1910460211985009,0
8653.0,0.1991777731806324,0
8663.0,0.20568622021427407,0
8673.0,0.20969203101413603,0
8683.0,0.21098842471469798,0
8693.0,0.21007352594100032,0
8703.0,0.20801036931242278,0
8713.0,0.206145685952365,0
8723.0,0.20573494619170168,0
8733.0,0.20758555368973713,0
8743.0,0.21662243997473213,0
8753.0,0.23197941313302906,0
8763.0,0.24831217807460254,0
8773.0,0.26488229200729274,0
8783.0,0.28107852649723786,0
8793.0,0.29643155000159815,0
8803.0,0.3105098586978161,0
8813.0,0.32280447238873444,0
8823.0,0.3327181551238058,0
8833.0,0.33969251411889734,0
8843.0,0.34551260179013354,0
8853.0,0.35500760581346325,0
8863.0,0.3618492309957371,0
8873.0,0.36681321778037124,0
8883.0,0.37097242724332263,0
8893.0,0.37559140990838125,0
8903.0,0.3820439494802471,0
8913.0,0.3917277862458235,0
8923.0,0.4273816066312204,0
8933.0,0.4710909607060755,0
8943.0,0.5125337156117125,0
8953.0,0.548147174577079,0
8963.0,0.5764350025601863,0
8973.0,0.5946872252843268,0
8983.0,0.6019281649520598,0
8993.0,0.6086215683748145,0
9003.0,0.6100738385062139,0
9013.0,0.6099631273357599,0
9023.0,0.6119447741667431,0
9033.0,0.617786559068485,0
9043.0,0.6268397197198105,0
9053.0,0.6365595523753272,0
9063.0,0.6439284847553498,0
9073.0,0.6473659689290658,0
9083.0,0.6482831661873377,0
9093.0,0.6529278177723774,0
9103.0,0.6734631522747936,0
9113.0,0.7055445589087628,0
9123.0,0.7458398000917401,0
9133.0,0.7904288125591488,0
9143.0,0.8403466259144907,0
9153.0,0.8806362936704766,0
9163.0,0.9070971649680448,0
9173.0,0.9194378581108785,0
9183.0,0.9230319253446424,0
9193.0,0.92430430129588,0
9203.0,0.9271437957733208,0
9213.0,0.9481063395350704,0
9223.0,0.9716269822012522,0
9233.0,0.9846775220463677,0
9243.0,0.9844120640961843,0
9253.0,0.9733063485708815,0
9263.0,0.9583573137582048,0
9273.0,0.948074621142425,0
9283.0,0.9482004815409123,0
9293.0,0.9585977531619478,0
9303.0,0.9736663504680176,0
9313.0,0.9860185709062665,0
9323.0,1.0001391824215957,0
9333.0,1.0618597725278596,0
9343.0,1.132021858279338,0
9353.0,1.2320066803472702,0
9363.0,1.4111751487947422,0
9373.0,1.5843056545582455,0
9383.0,1.7352712842870042,0
9393.0,1.8535066147990145,0
9403.0,1.9339695876824508,0
9413.0,1.9777067956806316,0
9423.0,1.9910716894493619,0
9433.0,1.986797320957867,0
9443.0,1.979908795326769,0
9453.0,1.9703339545191514,0
9463.0,1.9628829506618182,0
9473.0,1.9591409854451451,0
9483.0,1.9589102791690134,0
9493.0,1.9620128652110154,0
9503.0,1.9828438156653188,0
9513.0,2.0153220134569443,0
9523.0,2.053119797458926,0
9533.0,2.094996770101634,0
9543.0,2.1384461094922034,0
9553.0,2.180343346115234,0
9563.0,2.2178352598763644,0
9573.0,2.261746685225302,0
9583.0,2.2979051236696795,0
9593.0,2.320432549892408,0
9603.0,2.329941041923607,0
9613.0,2.326284074456318,0
9623.0,2.310874100371779,0
9633.0,2.2755256682889557,0
9643.0,2.2173707453930276,0
9653.0,2.1419430232860193,0
9663.0,2.048830117805234,0
9673.0,1.9937036722998105,0
9683.0,1.936986262046896,0
9693.0,1.8867714824784652,0
9703.0,1.8502190334570177,0
9713.0,1.8305833388593191,0
9723.0,1.8265625104532943,0
9733.0,1.833806943675383,0
9743.0,1.847186666363691,0
9753.0,1.8622399515933823,0
9763.0,1.8752784470606954,0
9773.0,1.8826477015394725,0
9783.0,1.8800504299718295,0
9793.0,1.862635009746627,0
9803.0,1.8266390119152773,0
9813.0,1.776532641867293,0
9823.0,1.7067114203467502,0
9833.0,1.620128666218076,0
9843.0,1.5224639448273798,0
9853.0,1.4209437900229522,0
9863.0,1.3227562312854169,0
9873.0,1.2336260688387393,0
9883.0,1.157074201459268,0
9893.0,1.09453306156054,0
9903.0,1.058525138785594,0
9913.0,1.0357979455607282,0
9923.0,1.0211451752849492,0
9933.0,1.0124589883050736,0
9943.0,1.0075517958895208,0
9953.0,1.004294253645266,0
9963.0,1.0007957374757446,0
9973.0,0.995521501315892,0
9983.0,0.9872758472644698,0
9993.0,0.975084538651282,0
10003.0,0.9580890417541787,0
10013.0,0.9355536387521883,0
10023.0,0.9069958841152324,0
10033.0,0.8723595643061528,0
10043.0,0.8321256541056384,0
10053.0,0.7873014101226545,0
10063.0,0.7392935205529015,0
10073.0,0.6897148104253792,0
10083.0,0.6496076425357024,0
10093.0,0.6113256111194368,0
10103.0,0.5759316154678567,0
10113.0,0.5422812114771185,0
10123.0,0.5098201651592473,0
10133.0,0.47846259707711813,0
10143.0,0.447910114107973,0
10153.0,0.4178270550892529,0
10163.0,0.3880041721265946,0
10173.0,0.35846091716894646,0
10183.0,0.3294671651687252,0
10193.0,0.30149373515266975,0
10203.0,0.2798449808578349,0
10213.0,0.2619332662567768,0
10223.0,0.24456233596696741,0
10233.0,0.22795705521929457,0
10243.0,0.21235077842024397,0
10253.0,0.19795647818077497,0
10263.0,0.18487330061901266,0
10273.0,0.17292155139007753,0
10283.0,0.16151823803420642,0
10293.0,0.14975636716280571,0
10303.0,0.1412126772240577,0
10313.0,0.13387081231269143,0
10323.0,0.12396606986651612,0
10333.0,0.1121245393446185,0
10343.0,0.11113717976800119,0
10353.0,0.11831606407474124,0
10363.0,0.12805617928880203,0
10373.0,0.1403133111358959,0
10383.0,0.1544374887492646,0
10393.0,0.16925651648410087,0
10403.0,0.18350213558527523,0
10413.0,0.19629109513444612,0
10423.0,0.2074014300420713,0
10433.0,0.21722586890254147,0
10443.0,0.22641318999468038,0
10453.0,0.23534171810209215,0
10463.0,0.24372589877290896,0
10473.0,0.2506950128905741,0
10483.0,0.2554952340938857,0
10493.0,0.25866263272328804,0
10503.0,0.26319584831494164,0
10513.0,0.2883341912045654,0
10523.0,0.3370451312962489,0
10533.0,0.4090445928474623,0
10543.0,0.5113776338495534,0
10553.0,0.6357340562195868,0
10563.0,0.7672775732191853,0
10573.0,0.9055491774380868,0
10583.0,1.0528031820022183,0
10593.0,1.1999359578373314,0
10603.0,1.3456391405510149,0
10613.0,1.4882058076928517,0
10623.0,1.6245784635704026,0
10633.0,1.7499195087804218,0
10643.0,1.8579726426005794,0
10653.0,1.9423186038078073,0
10663.0,2.0165747735409707,0
10673.0,2.076817125033286,0
10683.0,2.111958630062415,0
10693.0,2.130230115950787,0
10703.0,2.1534402221271964,0
10713.0,2.20930315886342,0
10723.0,2.3090525719741395,0
10733.0,2.457923497500378,0
10743.0,2.6499492825515336,0
10753.0,2.901946004640182,1
10763.0,3.1611092768794156,1
10773.0,3.399140571981761,1
10783.0,3.6000558176177444,1
10793.0,3.754962806540167,1
10803.0,3.8617442865113194,1
10813.0,3.941797742848637,1
10823.0,3.9883932041548285,1
10833.0,4.002936422126979,1
10843.0,3.9962054380638823,1
10853.0,3.978174795085604,1
10863.0,3.9560403897891607,1
10873.0,3.9332065150825155,1
10883.0,3.9095097899314633,1
10893.0,3.882493335456908,1
10903.0,3.8491471658049528,1
10913.0,3.807457131484013,1
10923.0,3.7573539123300326,1
10933.0,3.7009881717067117,1
10943.0,3.646519047496084,1
10953.0,3.600930671666828,1
10963.0,3.563368544087848,1
10973.0,3.5346483924232643,1
10983.0,3.5148429903282246,1
10993.0,3.507322697103297,1
11003.0,3.4964051332021517,1
11013.0,3.460504644618321,1
11023.0,3.3902475472724642,1
11033.0,3.304468833923252,1
11043.0,3.1834793101090435,1
11053.0,3.005217910097578,1
11063.0,2.7695228773921134,1
11073.0,2.484844939316059,1
11083.0,2.178593597178988,1
11093.0,1.881548672078551,1
11103.0,1.6081019749317715,0
11113.0,1.3826266187088783,0
11123.0,1.2462770118424704,0
11133.0,1.1835662624641716,0
11143.0,1.1710637858483506,0
11153.0,1.1632658711471708,0
11163.0,1.1314541995432836,0
11173.0,1.08486237835413,0
11183.0,1.013834657028299,0
11193.0,0.9374992410908527,0
11203.0,0.8751754485321097,0
11213.0,0.8287326973573229,0
11223.0,0.7804407723830074,0
11233.0,0.732948079732266,0
11243.0,0.6882548355460083,0
11253.0,0.6482051241299658,0
11263.0,0.6144725118148995,0
11273.0,0.5881032618645974,0
11283.0,0.5767940570219271,0
11293.0,0.5714991946237354,0
11303.0,0.5697687438668475,0
11313.0,0.5670292089508366,0
11323.0,0.5580448626966085,0
11333.0,0.5388590192667877,0
11343.0,0.5079521208660712,0
11353.0,0.46661487966865134,0
11363.0,0.418747387278425,0
11373.0,0.3701963958519281,0
11383.0,0.33609438588669305,0
11393.0,0.315290853978003,0
11403.0,0.30309995304653503,0
11413.0,0.30115616124564326,0
11423.0,0.3038506520255381,0
11433.0,0.30458552630469465,0
11443.0,0.3002859345910549,0
11453.0,0.2898131787075643,0
11463.0,0.27978962444447375,0
11473.0,0.27140922853956967,0
11483.0,0.26276622596583465,0
11493.0,0.2574884653623519,0
11503.0,0.25715753707801775,0
11513.0,0.26069091314047166,0
11523.0,0.2651754495165119,0
11533.0,0.2673453205448095,0
11543.0,0.2647827388705867,0
11553.0,0.25652019005306476,0
11563.0,0.24987109367177557,0
11573.0,0.25035800486727694,0
11583.0,0.2494441307875287,0
11593.0,0.2547030025206057,0
11603.0,0.2593335624613827,0
11613.0,0.2612897908725906,0
11623.0,0.260881190339999,0
11633.0,0.2590034950874204,0
11643.0,0.25702839689351087,0
11653.0,0.25649522808834013,0
11663.0,0.26555120186822456,0
11673.0,0.28269595262796565,0
11683.0,0.30029965441306194,0
11693.0,0.3157518887963311,0
11703.0,0.3265848221916195,0
11713.0,0.33117880880190903,0
11723.0,0.3302931766264235,0
11733.0,0.3282589567507128,0
11743.0,0.32975297660512665,0
11753.0,0.32767240224602645,0
11763.0,0.32398725525149574,0
11773.0,0.3204176003087933,0
11783.0,0.31815197811843177,0
11793.0,0.3198182102236321,0
11803.0,0.3275638617940062,0
11813.0,0.33646534584795035,0
11823.0,0.34519886711459546,0
11833.0,0.3526281586880356,0
11843.0,0.3580927144280125,0
11853.0,0.3615245358833053,0
11863.0,0.36339085785940717,0
11873.0,0.36452909797365607,0
11883.0,0.36593011408134846,0
11893.0,0.36847777729901676,0
11903.0,0.3726267848978523,0
11913.0,0.37805967895881604,0
11923.0,0.38349239916101324,0
11933.0,0.38686208795648575,0
11943.0,0.3860189984073044,0
11953.0,0.3807920573836461,0
11963.0,0.37267636373220414,0
11973.0,0.3605248081413555,0
11983.0,0.354857626311257,0
11993.0,0.3651300661025251,0
12003.0,0.39428791489867354,0
12013.0,0.4415748084022434,0
12023.0,0.5131871275761667,0
12033.0,0.5901028262276314,0
12043.0,0.6540969390381206,0
12053.0,0.6986186046560232,0
12063.0,0.7221314711152886,0
12073.0,0.7283454507127332,0
12083.0,0.7252742879693569,0
12093.0,0.7229006851695703,0
12103.0,0.7297357356525832,0
12113.0,0.7733315543115025,0
12123.0,0.8340007594806141,0
12133.0,0.8959293002083336,0
12143.0,0.9518958304162466,0
12153.0,0.9977073139194308,0
12163.0,1.0325959774484665,0
12173.0,1.058396364236688,0
12183.0,1.0783860109841876,0
12193.0,1.0967964995759334,0
12203.0,1.1195806529625743,0
12213.0,1.1559039264130715,0
12223.0,1.2184665990710888,0
12233.0,1.3206777405815409,0
12243.0,1.4712898306552447,0
12253.0,1.669957324991953,0
12263.0,1.9063073272856217,0
12273.0,2.1621721165009755,0
12283.0,2.415391378443671,0
12293.0,2.6439631115073547,0
12303.0,2.8298674224625833,1
12313.0,2.9621904619358417,1
12323.0,3.0392441070940346,1
12333.0,3.069277463673539,1
12343.0,3.069265487813367,1
12353.0,3.0613754020567607,1
12363.0,3.067380883630323,1
12373.0,3.1026121329284013,1
12383.0,3.172101442524016,1
12393.0,3.2708278019401487,1
12403.0,3.3874332712026716,1
12413.0,3.5088803587584794,1
12423.0,3.6238565591591905,1
12433.0,3.724293620318754,1
12443.0,3.8055223768672066,1
12453.0,3.865847975789163,1
12463.0,3.9060468448833916,1
12473.0,3.928874201866111,1
12483.0,3.9383891931336814,1
12493.0,3.93887761705397,1
12503.0,3.933383681299348,1
12513.0,3.922222399067357,1
12523.0,3.9020937187395437,1
12533.0,3.866344838766888,1
12543.0,3.806530760568349,1
12553.0,3.714951836774299,1
12563.0,3.587568115485268,1
12573.0,3.426651371715026,1
12583.0,3.2425582109459503,1
12593.0,3.05386554405648,1
12603.0,2.884786371226611,1
12613.0,2.7588932504648236,1
12623.0,2.7099786989027024,1
12633.0,2.7172867192955885,1
12643.0,2.7443495910101237,1
12653.0,2.7695520886567957,1
12663.0,2.774328102477669,1
12673.0,2.756778814321681,1
12683.0,2.7121341880566066,1
12693.0,2.6310268351061183,1
12703.0,2.5150503400989104,1
12713.0,2.368764076978374,1
12723.0,2.1994459431975364,1
12733.0,2.0171201257671707,1
12743.0,1.8449991838109376,1
12753.0,1.7188414524489026,1
12763.0,1.615095559989744,0
12773.0,1.5608815541832364,0
12783.0,1.5180347970700687,0
12793.0,1.4858922061037871,0
12803.0,1.463145294948314,0
12813.0,1.4482223780220607,0
12823.0,1.4395392001601126,0
12833.0,1.4354613112738528,0
12843.0,1.4340289585242258,0
12853.0,1.4325686958748116,0
12863.0,1.4274165578126252,0
12873.0,1.413989425512952,0
12883.0,1.3872837395183235,0
12893.0,1.3426810827529834,0
12903.0,1.2768515442403698,0
12913.0,1.1885861469395589,0
12923.0,1.0794700612470967,0
12933.0,0.9556213846706618,0
12943.0,0.840486922452337,0
12953.0,0.7235056046827404,0
12963.0,0.614562108930375,0
12973.0,0.5286214308632504,0
12983.0,0.47164476135570843,0
12993.0,0.4375902021514834,0
13003.0,0.4284899229664161,0
13013.0,0.42203586465289694,0
13023.0,0.4079968437345546,0
13033.0,0.38243346800469735,0
13043.0,0.3557922272340128,0
13053.0,0.3308195139975382,0
13063.0,0.29966385402146184,0
13073.0,0.2775288358168239,0
13083.0,0.2569044930740392,0
13093.0,0.23817285482899683,0
13103.0,0.2228809566650393,0
13113.0,0.21148500639567366,0
13123.0,0.20361329489623772,0
13133.0,0.20524853745662652,0
13143.0,0.21062981055300667,0
13153.0,0.216305297270104,0
13163.0,0.2215013799609873,0
13173.0,0.22585792492903167,0
13183.0,0.23232531910911997,0
13193.0,0.2395313582934845,0
13203.0,0.24553624751938122,0
13213.0,0.2503358071247723,0
13223.0,0.25387282309104475,0
13233.0,0.25600770230942593,0
13243.0,0.256570204639891,0
13253.0,0.25546558203520364,0
13263.0,0.25277707443936703,0
13273.0,0.24881499673525326,0
13283.0,0.2440937450817897,0
13293.0,0.23925430278252224,0
13303.0,0.23842212078962194,0
13313.0,0.24812075723575372,0
13323.0,0.2577951056733788,0
13333.0,0.2670879887831428,0
13343.0,0.2755969703794005,0
13353.0,0.28285450043932236,0
13363.0,0.288319151386751,0
13373.0,0.2970217538702784,0
13383.0,0.30245231299524655,0
13393.0,0.30222823349454314,0
13403.0,0.2970738414396626,0
13413.0,0.2914473203353788,0
13423.0,0.28766071697784246,0
13433.0,0.28508894753769204,0
13443.0,0.28421930387535177,0
13453.0,0.2872728064325049,0
13463.0,0.29650699760182603,0
13473.0,0.3055410702370369,0
13483.0,0.31236869303764453,0
13493.0,0.3158363236230469,0
13503.0,0.3160102907584611,0
13513.0,0.31436505947895166,0
13523.0,0.3177151868371749,0
13533.0,0.32534392054408723,0
13543.0,0.3390191162372363,0
13553.0,0.3584892026896911,0
13563.0,0.3816209485248308,0
13573.0,0.4052326031984571,0
13583.0,0.4260634275845661,0
13593.0,0.44152206612075984,0
13603.0,0.4501410840895783,0
13613.0,0.4580996840319558,0
13623.0,0.4764887113873384,0
13633.0,0.4887367525723668,0
13643.0,0.5085379343535726,0
13653.0,0.557042937991815,0
13663.0,0.609436136680327,0
13673.0,0.6565363269201109,0
13683.0,0.6968689008514409,0
13693.0,0.7395791454856389,0
13703.0,0.8033148236564488,0
13713.0,0.8578966289717646,0
13723.0,0.8997962233069612,0
13733.0,0.9257401712729909,0
13743.0,0.9350214692612979,0
13753.0,0.9329781179247206,0
13763.0,0.9279615446488441,0
13773.0,0.9421232998319778,0
13783.0,1.0115166952242967,0
13793.0,1.179233318755649,0
13803.0,1.3892923278335054,0
13813.0,1.6198173997129295,0
13823.0,1.8553134906590067,0
13833.0,2.0841787838531083,0
13843.0,2.27301337048972,0
13853.0,2.417616087612308,0
13863.0,2.5202116816463387,0
13873.0,2.601296540881894,0
13883.0,2.6608839592905738,0
13893.0,2.700064257153783,0
13903.0,2.723852162043169,0
13913.0,2.7362719603649834,0
13923.0,2.740497675589552,0
13933.0,2.739326389168368,0
13943.0,2.7357160309989315,0
13953.0,2.7331260917827542,0
13963.0,2.7354694532544785,0
13973.0,2.765652421796771,0
13983.0,2.819625015613987,1
13993.0,2.888343560680613,1
14003.0,2.9702234738513478,1
14013.0,3.063039700425616,1
14023.0,3.1645410120266924,1
14033.0,3.2720790818831507,1
14043.0,3.381331539486289,1
14053.0,3.4850381724495616,1
14063.0,3.572871697046187,1
14073.0,3.6329809955248686,1
14083.0,3.6548530191161874,1
14093.0,3.632531171118398,1
14103.0,3.567092351048093,1
14113.0,3.4674523727892055,1
14123.0,3.3488995703416613,1
14133.0,3.229378194872284,1
14143.0,3.124630807003884,1
14153.0,3.0443351643565535,1
14163.0,2.9910100489022753,1
14173.0,2.9615658483095872,1
14183.0,2.967913475772341,1
14193.0,3.006596120315217,1
14203.0,3.047082429670909,1
14213.0,3.0761494095179454,1
14223.0,3.09437209553036,1
14233.0,3.103090707094665,1
14243.0,3.1035307612799334,1
14253.0,3.096233014128032,1
14263.0,3.080840211475405,1
14273.0,3.0561773108986108,1
14283.0,3.0205300477956,1
14293.0,2.9720357504028274,1
14303.0,2.909119633940766,1
14313.0,2.830929908413212,1
14323.0,2.7377442661823066,1
14333.0,2.631326575051635,1
14343.0,2.5197588141544487,1
14353.0,2.4055903329551263,1
14363.0,2.326063226400333,1
14373.0,2.248511528946865,1
14383.0,2.172683811462978,1
14393.0,2.117133619277281,1
14403.0,2.1091056543090567,1
14413.0,2.0784491397674603,1
14423.0,2.0138402860000646,1
14433.0,1.9083069779160662,1
14443.0,1.7607695582336262,1
14453.0,1.5764354439648813,0
14463.0,1.3796328055558829,0
14473.0,1.1730595951110383,0
14483.0,0.9680072325336515,0
14493.0,0.7944042327818897,0
14503.0,0.6406162576937054,0
14513.0,0.5254040619698757,0
14523.0,0.448618583332132,0
14533.0,0.4047534362100127,0
14543.0,0.3870375700740498,0
14553.0,0.38512783105608694,0
14563.0,0.38880249472196904,0
14573.0,0.3909465521578163,0
14583.0,0.3876596762079152,0
14593.0,0.377380364773067,0
14603.0,0.3623215754689947,0
14613.0,0.352593950326047,0
14623.0,0.33937000913091797,0
14633.0,0.3244337255255579,0
14643.0,0.3095823306637193,0
14653.0,0.2966179464145099,0
14663.0,0.28720519058233307,0
14673.0,0.28248725228628124,0
14683.0,0.2827426433321121,0
14693.0,0.28744504259369774,0
14703.0,0.29562464323596616,0
14713.0,0.3061823011033383,0
14723.0,0.31804655096444623,0
14733.0,0.33023428539476973,0
14743.0,0.34184695621523997,0
14753.0,0.3520280809262145,0
14763.0,0.3599553798681637,0
14773.0,0.36492673003056125,0
14783.0,0.3665072988433907,0
14793.0,0.3675137875151495,0
14803.0,0.36906776414723835,0
14813.0,0.3667102150685899,0
14823.0,0.3610685773552754,0
14833.0,0.35307487171931445,0
14843.0,0.34395415368054505,0
14853.0,0.3351802913673013,0
14863.0,0.328328730896711,0
14873.0,0.32479145567476975,0
14883.0,0.32543981429165625,0
14893.0,0.3304121801071796,0
14903.0,0.3391180556672242,0
14913.0,0.35037668272023437,0
14923.0,0.3625761917919891,0
14933.0,0.37387099020030257,0
14943.0,0.3825162350784366,0
14953.0,0.3873157373093167,0
14963.0,0.38797795684344333,0
14973.0,0.3851642017791964,0
14983.0,0.38016614095228707,0
14993.0,0.37432293941515626,0
15003.0,0.36846679870263555,0
15013.0,0.3743735873140528,0
15023.0,0.3782343528408132,0
15033.0,0.37764360556013116,0
15043.0,0.37096964281625916,0
15053.0,0.35841548739927964,0
15063.0,0.3430555585651893,0
15073.0,0.3513005564839534,0
15083.0,0.3833492048802002,0
15093.0,0.4457784116893139,0
15103.0,0.5304018875708824,0
15113.0,0.6269694487450655,0
15123.0,0.7309234548368169,0
15133.0,0.8558938568270886,0
15143.0,1.0321988116765166,0
15153.0,1.220425120763641,0
15163.0,1.4093154215328139,0
15173.0,1.5921692001393004,0
15183.0,1.761915793291807,0
15193.0,1.9114494499249377,0
15203.0,2.034466436545801,0
15213.0,2.1267990003489583,0
15223.0,2.188040348526796,0
15233.0,2.222992447065491,0
15243.0,2.2421685495776122,0
15253.0,2.2605321802985854,0
15263.0,2.2944267940385066,0
15273.0,2.357810649985936,0
15283.0,2.458810470769702,0
15293.0,2.5971188721695486,0
15303.0,2.763500727498284,0
15313.0,2.9423028375953235,1
15323.0,3.1157832923898137,1
15333.0,3.2682203226864956,1
15343.0,3.388705771392121,1
15353.0,3.4725187642880626,1
15363.0,3.5212383804894216,1
15373.0,3.541687683307303,1
15383.0,3.5438248689820337,1
15393.0,3.537923015715681,1
15403.0,3.531719733999743,1
15413.0,3.5284342302799967,1
15423.0,3.526353273100135,1
15433.0,3.5200497041586436,1
15443.0,3.551475251870486,1
15453.0,3.5772412866394436,1
15463.0,3.5809570906317867,1
15473.0,3.5594549570919174,1
15483.0,3.5152449387181433,1
15493.0,3.457016015971373,1
15503.0,3.398937400102441,1
15513.0,3.358166560474302,1
15523.0,3.350350513191552,1
15533.0,3.384113361225303,1
15543.0,3.45694581151621,1
15553.0,3.5549242129171734,1
15563.0,3.656562152967455,1
15573.0,3.7390796479553288,1
15583.0,3.833547083070046,1
15593.0,3.8737520464361763,1
15603.0,3.853003433771673,1
15613.0,3.778650285208146,1
15623.0,3.665477813258814,1
15633.0,3.527183094278322,1
15643.0,3.390705543880954,1
15653.0,3.3102637152976486,1
15663.0,3.267342608164188,1
15673.0,3.252054265162786,1
15683.0,3.255197062410827,1
15693.0,3.2696510182045007,1
15703.0,3.2791829828377894,1
15713.0,3.2705973281067857,1
15723.0,3.238094427916102,1
15733.0,3.199625624691077,1
15743.0,3.149554682693861,1
15753.0,3.0921006866037595,1
15763.0,3.0350903503420508,1
15773.0,2.986021010779365,1
15783.0,2.9496370163412235,1
15793.0,2.9254322920720326,1
15803.0,2.9061941186491174,1
15813.0,2.878722378478248,1
15823.0,2.8268292072157193,1
15833.0,2.735473907635156,1
15843.0,2.6194095252380096,1
15853.0,2.445167543051924,1
15863.0,2.2174285988906908,1
15873.0,1.9514744352552265,1
15883.0,1.6713569103669177,1
15893.0,1.4071996016356059,0
15903.0,1.1896953927311333,0
15913.0,1.0493021030333927,0
15923.0,1.0014770512646078,0
15933.0,0.9930428778295488,0
15943.0,0.9955833450996256,0
15953.0,0.9887337556644706,0
15963.0,0.96273026221423,0
15973.0,0.9161993080402975,0
15983.0,0.8530974119742204,0
15993.0,0.7801310316393639,0
16003.0,0.71111580941176,0
16013.0,0.6557706058060195,0
16023.0,0.6059472599048464,0
16033.0,0.5634874380610566,0
16043.0,0.5333797687008671,0
16053.0,0.5183991423367301,0
16063.0,0.5083155195187169,0
16073.0,0.5018345863520371,0
16083.0,0.4996803981750548,0
16093.0,0.49880332920993325,0
16103.0,0.4968283074464521,0
16113.0,0.4927413212921232,0
16123.0,0.48595343295973226,0
16133.0,0.47643558604760583,0
16143.0,0.4705852027686718,0
16153.0,0.4648056248385042,0
16163.0,0.45777255456457905,0
16173.0,0.44932267954010724,0
16183.0,0.43927831659262995,0
16193.0,0.4275671979808985,0
16203.0,0.4144445657326178,0
16213.0,0.4026519685255022,0
16223.0,0.395536662231795,0
16233.0,0.389947064373605,0
16243.0,0.3895048134220726,0
16253.0,0.3984165986215944,0
16263.0,0.41344153898479485,0
16273.0,0.43523524362531846,0
16283.0,0.46347787447771915,0
16293.0,0.49414372594400346,0
16303.0,0.5225697075993344,0
16313.0,0.5461422893180257,0
16323.0,0.5630921435072227,0
16333.0,0.5727235795753844,0
16343.0,0.575508212779378,0
16353.0,0.5730563915251724,0
16363.0,0.5679389588050194,0
16373.0,0.5632823414465435,0
16383.0,0.5636975716514889,0
16393.0,0.5733383300235708,0
16403.0,0.5903007588801387,0
16413.0,0.612325627935524,0
16423.0,0.6358370351372226,0
16433.0,0.6574823815414927,0
16443.0,0.6863409142899555,0
16453.0,0.7203643609525712,0
16463.0,0.7606268672710532,0
16473.0,0.8067112720255734,0
16483.0,0.8664852949370419,0
16493.0,0.9429441084064356,0
16503.0,1.0088973068836857,0
16513.0,1.0587592162919952,0
16523.0,1.0903947606425497,0
16533.0,1.1060985400631937,0
16543.0,1.11251015395821,0
16553.0,1.1188145785567714,0
16563.0,1.1332275290299363,0
16573.0,1.1594792497645425,0
16583.0,1.195755813655586,0
16593.0,1.236494609757054,0
16603.0,1.2753593171273754,0
16613.0,1.318355608299975,0
16623.0,1.379767867268228,0
16633.0,1.4285074791429828,0
16643.0,1.4627097364243289,0
16653.0,1.4938511904633849,0
16663.0,1.5277457188584793,0
16673.0,1.5579536773022715,0
16683.0,1.6395805059606101,0
16693.0,1.7238523278727116,0
16703.0,1.8023712974098411,0
16713.0,1.8752988894707945,0
16723.0,1.941367537447749,0
16733.0,1.9983438972097536,0
16743.0,2.044560635784794,0
16753.0,2.079989295421355,0
16763.0,2.1062357262716027,0
16773.0,2.125809814376263,0
16783.0,2.1412592341372503,0
16793.0,2.154572896349718,0
16803.0,2.166930736647924,0
16813.0,2.1786148656688837,0
16823.0,2.1889163503073505,0
16833.0,2.1961103567448457,0
16843.0,2.197695345357347,0
16853.0,2.19094192004184,0
16863.0,2.1735834731156394,0
16873.0,2.1444231662115376,0
16883.0,2.103709959543597,0
16893.0,2.0573441449287233,0
16903.0,2.0414568815491934,0
16913.0,2.0252688829460714,0
16923.0,2.0056469190530866,0
16933.0,1.9783406899238716,0
16943.0,1.9496493133711112,0
16953.0,1.9124342290662981,0
16963.0,1.8636696799379844,0
16973.0,1.8017006332893493,0
16983.0,1.7258692718337498,0
16993.0,1.6371472954402468,0
17003.0,1.5388062651128684,0
17013.0,1.4485385116856446,0
17023.0,1.393029727032118,0
17033.0,1.3396925035500566,0
17043.0,1.2880798964505713,0
17053.0,1.2349982930270427,0
17063.0,1.1768311888811989,0
17073.0,1.1120495064412799,0
17083.0,1.0420514738398758,0
17093.0,0.9732568993982155,0
17103.0,0.9368707874932958,0
17113.0,0.897747543192035,0
17123.0,0.8702736560827602,0
17133.0,0.8532629132178935,0
17143.0,0.8389126595677603,0
17153.0,0.825345507063109,0
17163.0,0.8106042551045294,0
17173.0,0.7932548388864296,0
17183.0,0.7728182551986267,0
17193.0,0.753727392647741,0
17203.0,0.7352756454758373,0
17213.0,0.7135883581253949,0
17223.0,0.6881993173576604,0
17233.0,0.6669108889584298,0
17243.0,0.6535676004957799,0
17253.0,0.6411742406892765,0
17263.0,0.6291021857197083,0
17273.0,0.6163646225128404,0
17283.0,0.6014812708427797,0
17293.0,0.5924040621892372,0
17303.0,0.5784734887770366,0
17313.0,0.556227972445801,0
17323.0,0.5247492382068868,0
17333.0,0.4845516954287372,0
17343.0,0.43752291893612144,0
17353.0,0.38674322799371086,0
17363.0,0.3361478943113271,0
17373.0,0.28991059089994764,0
17383.0,0.25147296120126217,0
17393.0,0.22249210300743125,0
17403.0,0.20650161139729212,0
17413.0,0.20038574035866813,0
17423.0,0.20437561747739708,0
17433.0,0.20627361268038677,0
17443.0,0.20427322430583858,0
17453.0,0.20203642736094857,0
17463.0,0.2041854185042121,0
17473.0,0.20609977064729335,0
17483.0,0.21126852443609373,0
17493.0,0.21911353712576734,0
17503.0,0.22731205954720599,0
17513.0,0.23450828230063547,0
17523.0,0.2392538584793811,0
17533.0,0.24223539290167007,0
17543.0,0.24546332104526408,0
17553.0,0.2482021977839971,0
17563.0,0.2583157532155982,0
17573.0,0.26790638305260106,0
17583.0,0.27693251626425375,0
17593.0,0.28521528783987615,0
17603.0,0.29251265022984557,0
17613.0,0.29863731175849917,0
17623.0,0.30357100683089655,0
17633.0,0.3075481684270804,0
17643.0,0.3111233547504486,0
17653.0,0.3152788886645695,0
17663.0,0.32385823277899106,0
17673.0,0.33544358337898195,0
17683.0,0.3519310626140519,0
17693.0,0.3834155123068732,0
17703.0,0.43046290887260874,0
17713.0,0.49390666653706605,0
17723.0,0.5707281409226498,0
17733.0,0.6773457585554598,0
17743.0,0.7880507534451899,0
17753.0,0.880568918430392,0
17763.0,0.9448332419400489,0
17773.0,0.9788329932411162,0
17783.0,0.9928060008174239,0
17793.0,0.9955435953075751,0
17803.0,1.0206750537074347,0
17813.0,1.1220806612779688,0
17823.0,1.31104436897678,0
17833.0,1.5820807530875136,0
17843.0,1.9116556915784804,0
17853.0,2.269529660543955,0
17863.0,2.6348023997553076,0
17873.0,3.0065086771786578,1
17883.0,3.3401678134002366,1
17893.0,3.62174479317032,1
17903.0,3.844847140199861,1
17913.0,4.010351413021825,1
17923.0,4.125142406221225,1
17933.0,4.199946978925733,1
17943.0,4.246596182112225,1
17953.0,4.27543942889813,1
17963.0,4.293725873765732,1
17973.0,4.305336060239256,1
17983.0,4.311583927759876,1
17993.0,4.312451221648628,1
18003.0,4.30770045585508,1
18013.0,4.297587842115696,1
18023.0,4.283160163637222,1
18033.0,4.266306358316616,1
18043.0,4.249770796985727,1
18053.0,4.237148334133963,1
18063.0,4.232570716547481,1
18073.0,4.239662636447638,1
18083.0,4.259657283849998,1
18093.0,4.289226155415864,1
18103.0,4.319104397117996,1
18113.0,4.334473495090741,1
18123.0,4.317302239255029,1
18133.0,4.249994458011059,1
18143.0,4.119280868415521,1
18153.0,3.9193957842637044,1
18163.0,3.6932861764309792,1
18173.0,3.4860785622939336,1
18183.0,3.2847128193560264,1
18193.0,3.1748841867352766,1
18203.0,3.077471236844301,1
18213.0,2.9927589234784278,1
18223.0,2.919849934427055,1
18233.0,2.858730673458729,1
18243.0,2.8108709704343537,1
18253.0,2.7780536519859456,1
18263.0,2.760271201455383,1
18273.0,2.754171690643008,1
18283.0,2.753135065458598,1
18293.0,2.7488611872825732,1
18303.0,2.733429730056934,1
18313.0,2.7008293960514624,1
18323.0,2.6475679691339,1
18333.0,2.572500430403073,1
18343.0,2.4805230499499986,1
18353.0,2.3790728583890943,1
18363.0,2.2582274105951683,1
18373.0,2.121598031298398,1
18383.0,1.9939147713222178,1
18393.0,1.8859764350301402,1
18403.0,1.7735742789795093,1
18413.0,1.6636121550100529,0
18423.0,1.5650206221976888,0
18433.0,1.486797559363329,0
18443.0,1.450329721990792,0
18453.0,1.4445722357775561,0
18463.0,1.431750137695213,0
18473.0,1.4051108249665267,0
18483.0,1.3638447912173444,0
18493.0,1.2993856577823333,0
18503.0,1.2145866470788402,0
18513.0,1.1178323571625097,0
18523.0,1.020782071032144,0
18533.0,0.9593734227777697,0
18543.0,0.9192619645023241,0
18553.0,0.8925601460758981,0
18563.0,0.8728181393897042,0
18573.0,0.8496328277613316,0
18583.0,0.8138407431562847,0
18593.0,0.7609121618135799,0
18603.0,0.6911121549722579,0
18613.0,0.6081484863966411,0
18623.0,0.5176595248993751,0
18633.0,0.4349523908275685,0
18643.0,0.3589314380404889,0
18653.0,0.29377744619156565,0
18663.0,0.2417228342035782,0
18673.0,0.20280794326569143,0
18683.0,0.17552355199353162,0
18693.0,0.15755473697494052,0
18703.0,0.14624244188231422,0
18713.0,0.13906252193884733,0
18723.0,0.13413245410749536,0
18733.0,0.13087234299836287,0
18743.0,0.12910649627112908,0
18753.0,0.12865863957093895,0
18763.0,0.1298307074183372,0
18773.0,0.13335055660711892,0
18783.0,0.13488477080421743,0
18793.0,0.1346844660288582,0
18803.0,0.1334382016317851,0
18813.0,0.13195311466660475,0
18823.0,0.13080142266374134,0
18833.0,0.130066112285311,0
18843.0,0.1292912410882648,0
18853.0,0.12765308904484854,0
18863.0,0.12426956349082566,0
18873.0,0.1185280776018856,0
18883.0,0.11033649383001501,0
18893.0,0.10249599428659162,0
18903.0,0.09390841896383251,0
18913.0,0.08562612572310699,0
18923.0,0.07928394475067535,0
18933.0,0.07504253188142337,0
18943.0,0.07161663706414922,0
18953.0,0.06954652844080599,0
18963.0,0.07033549106840954,0
18973.0,0.07481232356272124,0
18983.0,0.08042854128110699,0
18993.0,0.08881645307895666,0
19003.0,0.09570210383627231,0
19013.0,0.10026466585219869,0
19023.0,0.10243582365763321,0
19033.0,0.10671727411070794,0
19043.0,0.10932401540600674,0
19053.0,0.1107809876288118,0
19063.0,0.11150029344051446,0
19073.0,0.11153408673061957,0
19083.0,0.11050530040887366,0
19093.0,0.10778279321140777,0
19103.0,0.1028198993985823,0
19113.0,0.0954927033240153,0
19123.0,0.0868229160039069,0
19133.0,0.08238651958646692,0
19143.0,0.07971153340440101,0
19153.0,0.08257804229604593,0
19163.0,0.08857356768186542,0
19173.0,0.09517936335505149,0
19183.0,0.10161196591071583,0
19193.0,0.1072496828088147,0
19203.0,0.11177031974928903,0
19213.0,0.11569751530217062,0
19223.0,0.11852939167231644,0
19233.0,0.119008168549073,0
19243.0,0.1173576524306123,0
19253.0,0.11458890047424586,0
19263.0,0.10980299203553956,0
19273.0,0.10334463038447672,0
19283.0,0.09718776821489608,0
19293.0,0.0952684101085111,0
19303.0,0.09265599384304643,0
19313.0,0.09026993493616128,0
19323.0,0.08879802268572962,0
19333.0,0.08854877115183893,0
19343.0,0.08948691834195613,0
19353.0,0.09609561741298886,0
19363.0,0.10448830116146542,0
19373.0,0.11413011748506782,0
19383.0,0.12268389669640682,0
19393.0,0.12846599823621974,0
19403.0,0.13175247592799522,0
19413.0,0.13578514613147008,0
19423.0,0.14281213710423696,0
19433.0,0.14931791435971317,0
19443.0,0.15427511003889882,0
19453.0,0.1576995047947773,0
19463.0,0.15967293450270925,0
19473.0,0.16027149233733035,0
19483.0,0.15957809841425313,0
19493.0,0.15773945216247143,0
19503.0,0.155036359031,0
19513.0,0.15191462786152446,0
19523.0,0.1489298697484687,0
19533.0,0.14660002199341785,0
19543.0,0.14521751582649817,0
19553.0,0.1447142853645168,0
19563.0,0.14476598470230062,0
19573.0,0.14610223899452768,0
19583.0,0.14594655121101513,0
19593.0,0.14340611837662254,0
19603.0,0.13794735306144096,0
19613.0,0.13049813207716518,0
19623.0,0.12334336327481371,0
19633.0,0.11526246288810614,0
19643.0,0.10653135288340232,0
19653.0,0.09737994596537058,0
19663.0,0.0912908551551913,0
19673.0,0.0860814738047755,0
19683.0,0.07971440872728441,0
19693.0,0.07353187673570648,0
19703.0,0.076835340497967,0
19713.0,0.08397181756488803,0
19723.0,0.09388343942171867,0
19733.0,0.10558072828616408,0
19743.0,0.11752391951492638,0
19753.0,0.13229251190184615,0
19763.0,0.14619322259206363,0
19773.0,0.15448260200004718,0
19783.0,0.15692747471491023,0
19793.0,0.15412852248627046,0
19803.0,0.1474923644951047,0
19813.0,0.1409840972383279,0
19823.0,0.1390816881197379,0
19833.0,0.13925544434736709,0
19843.0,0.14233610744357053,0
19853.0,0.1482463077180909,0
19863.0,0.15618259449944458,0
19873.0,0.16494635464089105,0
19883.0,0.1732873256917022,0
19893.0,0.18019901660114107,0
19903.0,0.18512172597974014,0
19913.0,0.18802288569780318,0
19923.0,0.18935626005029166,0
19933.0,0.1984924379871886,0
19943.0,0.20789147876191486,0
19953.0,0.21732997754182656,0
19963.0,0.22667844503108997,0
19973.0,0.23547266074101186,0
19983.0,0.24319002477327056,0
19993.0,0.2529702546099529,0
20003.0,0.2635303857091177,0
20013.0,0.26934423642709737,0
20023.0,0.26916278140315386,0
20033.0,0.26260582915086056,0
20043.0,0.2503643353603663,0
20053.0,0.23423640016675068,0
20063.0,0.21692028129290475,0
20073.0,0.203032344160188,0
20083.0,0.1932069715024355,0
20093.0,0.18823415511852964,0
20103.0,0.187793278985526,0
20113.0,0.19040449063768478,0
20123.0,0.1941262776307524,0
20133.0,0.1971371586602358,0
20143.0,0.19815275489895426,0
20153.0,0.1962616947064429,0
20163.0,0.19155112797230672,0
20173.0,0.19145591376648197,0
20183.0,0.19657519305207558,0
20193.0,0.19974537644015583,0
20203.0,0.2012539516421813,0
20213.0,0.20137435110875018,0
20223.0,0.2002182694300983,0
20233.0,0.19769486610955928,0
20243.0,0.1935984454456019,0
20253.0,0.18776692729105526,0
20263.0,0.18021727884916006,0
20273.0,0.17119205281538824,0
20283.0,0.16110506278175168,0
20293.0,0.1504226403640824,0
20303.0,0.13955422024963754,0
20313.0,0.12883727276571616,0
20323.0,0.12575725983690744,0
20333.0,0.12473900145208759,0
20343.0,0.12493518431685849,0
20353.0,0.12656916392634163,0
20363.0,0.12991698475484223,0
20373.0,0.13505438823398602,0
20383.0,0.14161635429571867,0
20393.0,0.14874164164245468,0
20403.0,0.15524256914794354,0
20413.0,0.1598973101078725,0
20423.0,0.16173203171293365,0
20433.0,0.16021287962100716,0
20443.0,0.1585632534913652,0
20453.0,0.1546014914449233,0
20463.0,0.14855775613724181,0
20473.0,0.14128977515920912,0
20483.0,0.13517049157736782,0
20493.0,0.13279086056737724,0
20503.0,0.13211407056114088,0
20513.0,0.13386660333074996,0
20523.0,0.1384438511611441,0
20533.0,0.14577136799464324,0
20543.0,0.15524294004068878,0
20553.0,0.16582053099641567,0
20563.0,0.17631462047278723,0
20573.0,0.18574500861158347,0
20583.0,0.19362165768285777,0
20593.0,0.2000065919990551,0
20603.0,0.20530488143591263,0
20613.0,0.20990154000947056,0
20623.0,0.21390868957309145,0
20633.0,0.21717728254676436,0
20643.0,0.22219529600080434,0
20653.0,0.2261045250774884,0
20663.0,0.2257075010925515,0
20673.0,0.22127981135148972,0
20683.0,0.21486207753123665,0
20693.0,0.2104479889345749,0
20703.0,0.20534428133376625,0
20713.0,0.19994269058805914,0
20723.0,0.1945146593157956,0
20733.0,0.19336910701750798,0
20743.0,0.1965895706559813,0
20753.0,0.20028469217906425,0
20763.0,0.20650811897613308,0
20773.0,0.216808452474404,0
20783.0,0.2256406465964898,0
20793.0,0.2322295388427144,0
20803.0,0.23597708770092363,0
20813.0,0.23643702013350007,0
20823.0,0.23333997822220823,0
20833.0,0.2282698352267694,0
20843.0,0.22101973101301214,0
20853.0,0.21217131882109708,0
20863.0,0.2029035438462014,0
20873.0,0.194008559935682,0
20883.0,0.18554126547656719,0
20893.0,0.17687159483716886,0
20903.0,0.16710013904434823,0
20913.0,0.15558180217462667,0
20923.0,0.14231721290525062,0
20933.0,0.12810628535790747,0
20943.0,0.11933379352302773,0
20953.0,0.11343061582848464,0
20963.0,0.10917322292232232,0
20973.0,0.10655226674991912,0
20983.0,0.10495499906180492,0
20993.0,0.10335411037090239,0
21003.0,0.10081692891993876,0
21013.0,0.0968920118802912,0
21023.0,0.09248393812246386,0
21033.0,0.08861236440693235,0
21043.0,0.08401493961325748,0
21053.0,0.0793025945413916,0
21063.0,0.07482860736380609,0
21073.0,0.07060022731279421,0
21083.0,0.0672606492524892,0
21093.0,0.06628090915277451,0
21103.0,0.06460400975813367,0
21113.0,0.06116365036759675,0
21123.0,0.05926003715272615,0
21133.0,0.059706331440713564,0
21143.0,0.060051197543671817,0
21153.0,0.06202986893739319,0
21163.0,0.06574842776013685,0
21173.0,0.07089917008093145,0
21183.0,0.07669858307381244,0
21193.0,0.08207723125148561,0
21203.0,0.0859892112851962,0
21213.0,0.088042924875605,0
21223.0,0.09016518136388546,0
21233.0,0.09010145805169524,0
21243.0,0.08848792386124692,0
21253.0,0.08610799619025011,0
21263.0,0.08370240457738054,0
21273.0,0.08185942212727931,0
21283.0,0.0810100769468845,0
21293.0,0.0815017006293417,0
21303.0,0.08549261028323876,0
21313.0,0.0915418442834611,0
21323.0,0.09755180692905163,0
21333.0,0.10324043125489415,0
21343.0,0.11260104781431429,0
21353.0,0.12276672099065444,0
21363.0,0.13190902958311929,0
21373.0,0.13882291873867447,0
21383.0,0.1427568209103452,0
21393.0,0.14365133803802985,0
21403.0,0.14221554876199097,0
21413.0,0.14758798305930199,0
21423.0,0.15583565318389836,0
21433.0,0.16502961733890836,0
21443.0,0.17524033532082817,0
21453.0,0.18432054379530122,0
21463.0,0.19062550301692618,0
21473.0,0.1928708964796041,0
21483.0,0.1907064258722051,0
21493.0,0.18903435904217977,0
21503.0,0.18706452794434425,0
21513.0,0.18482613321919839,0
21523.0,0.18413985906222663,0
21533.0,0.1862582313838594,0
21543.0,0.1913951448882495,0
21553.0,0.19869955373858272,0
21563.0,0.20667291184684736,0
21573.0,0.21375574808248615,0
21583.0,0.21877687531333523,0
21593.0,0.22112700168859895,0
21603.0,0.2206828249700934,0
21613.0,0.21758759084518264,0
21623.0,0.21201518100485434,0
21633.0,0.20403073325419002,0
21643.0,0.19361096239363118,0
21653.0,0.18080746750696658,0
21663.0,0.16595997779273827,0
21673.0,0.14983392050628447,0
21683.0,0.13358080368403108,0
21693.0,0.11848557973111928,0
21703.0,0.10876898522601232,0
21713.0,0.10109503201134351,0
21723.0,0.09475920357572144,0
21733.0,0.0887085532074905,0
21743.0,0.09166002023489267,0
21753.0,0.09743697775152385,0
21763.0,0.10294180428314623,0
21773.0,0.11081483578575979,0
21783.0,0.1225667405873882,0
21793.0,0.1359918290942757,0
21803.0,0.1497359832097867,0
21813.0,0.16183742991068628,0
21823.0,0.17037558579303724,0
21833.0,0.17405246612165076,0
21843.0,0.1724778332232082,0
21853.0,0.16620801324874854,0
21863.0,0.15662018205876774,0
21873.0,0.1456418123107273,0
21883.0,0.13533449151519877,0
21893.0,0.12737649704270892,0
21903.0,0.1225944189908242,0
21913.0,0.12484885631069106,0
21923.0,0.12840800621552176,0
21933.0,0.13168943539133715,0
21943.0,0.13433337213785745,0
21953.0,0.13617780711519903,0
21963.0,0.1373055805123338,0
21973.0,0.13798880596930052,0
21983.0,0.1385227464778298,0
21993.0,0.1390123890444764,0
22003.0,0.1392145378108258,0
22013.0,0.13850651915635412,0
22023.0,0.13598885662247764,0
22033.0,0.13069348878501647,0
22043.0,0.12185913690924344,0
22053.0,0.10922345836509376,0
22063.0,0.09522141712533452,0
22073.0,0.08210820662882876,0
22083.0,0.06762645211238874,0
22093.0,0.05452631545138807,0
22103.0,0.05024874906152074,0
22113.0,0.04836791502579497,0
22123.0,0.04811493964439699,0
22133.0,0.05683036658386168,0
22143.0,0.06823892310734164,0
22153.0,0.07585134785492947,0
22163.0,0.0792143542506259,0
22173.0,0.07923012607219425,0
22183.0,0.0778443520895607,0
22193.0,0.07741142786750162,0
22203.0,0.07984405970189,0
22213.0,0.08588850872172074,0
22223.0,0.09491588901943615,0
22233.0,0.10531017587733107,0
22243.0,0.11514410464833866,0
22253.0,0.12276308877355968,0
22263.0,0.12710985188964896,0
22273.0,0.12782194108020925,0
22283.0,0.125197117498629,0
22293.0,0.12009946262109739,0
22303.0,0.11382812125868427,0
22313.0,0.10791604896845587,0
22323.0,0.10381237729671215,0
22333.0,0.10248617626641487,0
22343.0,0.10411896206216459,0
22353.0,0.10804490029498778,0
22363.0,0.11293504803168844,0
22373.0,0.11712215984520627,0
22383.0,0.12004696352520133,0
22393.0,0.12103838535217859,0
22403.0,0.11872275142484372,0
22413.0,0.11328048697606982,0
22423.0,0.10572415952452288,0
22433.0,0.09790280092591477,0
22443.0,0.09218671687925037,0
22453.0,0.09282166931101232,0
22463.0,0.09927607959978535,0
22473.0,0.11110592647867304,0
22483.0,0.1257656599540965,0
22493.0,0.13746145279473287,0
22503.0,0.14408391815355173,0
22513.0,0.14456400435490288,0
22523.0,0.13897001944531878,0
22533.0,0.13223852148090398,0
22543.0,0.12585359772853955,0
22553.0,0.11863131392282003,0
22563.0,0.11232369537411374,0
22573.0,0.1081686683890829,0
22583.0,0.10856074655835662,0
22593.0,0.1131774981474582,0
22603.0,0.11783336403681943,0
22613.0,0.12101597929807921,0
22623.0,0.12164755758358667,0
22633.0,0.11933256713352136,0
22643.0,0.1145970808996547,0
22653.0,0.12457525267900932,0
22663.0,0.13511701652465308,0
22673.0,0.14612942223794242,0
22683.0,0.15720592720815396,0
22693.0,0.16766510339213256,0
22703.0,0.17667569713483466,0
22713.0,0.18340817773452817,0
22723.0,0.18716506293079033,0
22733.0,0.1874714832198534,0
22743.0,0.1841269703219724,0
22753.0,0.17722542229217653,0
22763.0,0.16782912803429614,0
22773.0,0.15620777505667893,0
22783.0,0.1428885298432886,0
22793.0,0.13710262898882394,0
22803.0,0.13354794043571283,0
22813.0,0.1309947186991989,0
22823.0,0.12942724186588117,0
22833.0,0.12859694507883979,0
22843.0,0.12810535820117783,0
22853.0,0.12751485474605176,0
22863.0,0.12644571189323445,0
22873.0,0.12463413393982456,0
22883.0,0.12194568071401932,0
22891.0,0.11835284747807213,0
