t_center,rms_emg1,rms_emg2,rms_emg3,rms_emg4,rms_emg5,rms_emg6,rms_emg7,rms_emg8,mean_z_emg1,mean_z_emg2,mean_z_emg3,mean_z_emg4,mean_z_emg5,mean_z_emg6,mean_z_emg7,mean_z_emg8,channel_count,frac_active,global_active
0.11699999999999999,0.6690531868607165,0.5551691533528258,0.788137177508095,1.8504857216159862,2.364799188409794,0.8713011157845567,0.9625773115547175,0.6662749999708626,-3.627797280425906,-2.4814140200482275,-2.4589250614314495,-2.5101457770187454,-2.6201309459280093,-2.8903585932994496,-2.7739060263997657,-2.456828357779754,0,0.0,0
0.177,0.6715396398632438,0.9805500212657594,1.5645747676788757,5.769738120586075,5.198432601680064,2.9958292041354797,1.0339078465968197,0.7515003221101518,-3.627905043554468,-2.351168588706536,-2.236928901695054,-1.339974747096153,-2.014841131887289,-2.6585395108868375,-2.76495360607192,-2.441805968347994,0,0.0,0
0.237,0.5276530679987758,1.6683551255424878,2.8726364938218083,8.262377657254765,7.916173847238586,5.6194364864809065,1.4823459607885765,1.3076293659900597,-3.6912975030326822,-2.0970474189094594,-1.7832918675768472,-0.3513413762660327,-1.3520599264809645,-2.2557055591972612,-2.7044173694456437,-2.3275798892975597,0,0.0,0
0.297,0.9445308050894453,1.9067185679125056,4.026297109881914,8.457677123637499,9.342697290897847,6.137191971882641,1.7299054495397554,1.5716197994698446,-3.564829562555246,-1.9930195373017827,-1.3524763456487605,-0.27531856503694385,-1.0147069703934577,-2.153990607871529,-2.6619118048007766,-2.252302099065655,0,0.0,0
0.357,2.018505334675064,1.4441701537612317,4.5855184340943405,10.128127310081243,11.70958547096881,5.791529397275439,1.6997456809908258,1.489127295864497,-3.117308124244943,-2.185906757716718,-1.1485588946885696,0.182829963879827,-0.5266080287296231,-2.1990208710536323,-2.6659866871227593,-2.269975274180878,0,0.0,0
0.417,2.2456928621047267,0.9087556546665418,4.033886731683033,10.68298974611946,11.585580177374128,5.532982267811696,1.734114798493622,1.34121762056632,-2.984913391335786,-2.356127627592514,-1.3688578699927885,0.35105759371746087,-0.60049964962674,-2.2465506883547888,-2.660960106451569,-2.305890433543738,0,0.0,0
0.477,1.5144061221833953,1.235944869418139,2.501699898933064,7.185725045620135,7.573805401959884,4.441248631650443,2.0983611920948437,1.4701736158333676,-3.307007338682139,-2.252820752259017,-1.9455096740628026,-0.881894672652843,-1.5264896634604155,-2.403885922143884,-2.6130069464606014,-2.2868057707945395,0,0.0,0
0.5369999999999999,1.4403032177643476,1.8549869325738224,1.0326511402046998,4.0612890478381,11.743978091257638,8.169436005577404,3.461023295348646,2.7589063458016168,-3.3293556190227065,-2.020547797363428,-2.434236407177258,-1.6309341188568796,-0.8199891576462018,-1.9903286254620303,-2.4318360936526404,-2.0260083950455896,0,0.0,0
0.597,3.423014676587085,2.857438416472266,0.696935137791096,5.95490580036178,17.17548896113507,11.280911005260474,4.324905973797723,4.133049997832844,-2.628303026278119,-1.6819782741706166,-2.5324880193112986,-1.0997689907940604,0.6579364700312681,-1.448542238674525,-2.2865132128104886,-1.6818886501885901,0,0.0,0
0.657,7.096046861990316,5.201762656037293,3.786220199638818,8.99833274425835,17.083822358036798,13.27753232334746,5.214653541032898,6.029809331815686,-1.1141365123309468,-0.899157181370443,-1.7455500450185555,-0.1689980260700037,0.679842412270499,-1.1881416671054956,-2.180448020787694,-1.2763661075723918,0,0.0,0
0.7170000000000001,9.518968289104155,6.883352784519434,8.72537858286423,15.273510957532,18.142350188201927,22.184027526934965,12.617513124147978,9.351680332826525,0.08315256330203767,-0.20328185492482165,0.03147469200382672,1.580038235766646,0.879692106362061,-0.08739867242360433,-1.3042672428201256,-0.5448169963313104,1,0.125,0
0.7769999999999999,8.174824387286478,5.72135342573734,10.902494155228993,20.504614230887025,21.319016329145494,28.2595232042178,20.6790609417302,11.107901601633202,-0.6385996526874863,-0.7410298936112815,1.0007816440469117,3.331275568062418,1.6005856735700232,0.9045279455612586,0.02709089460186879,-0.09565621849296024,3,0.375,0
0.837,4.413895892216769,3.1865538542057497,9.010985685884094,17.80948252530414,18.613280298037523,24.395558185577084,19.321731677507724,8.62007510047817,-2.2336729019552437,-1.5697054725951176,0.2968821245577489,2.3279283747842747,0.915572307993915,0.30932067778354194,-0.23995947839926876,-0.7981045841388282,2,0.25,0
0.897,4.801031284261101,4.613450602832418,6.605968957035454,10.600403078230238,11.865043525335889,15.969309124294004,9.909143093109021,5.367105146229279,-2.1021323690849987,-1.1400922288181417,-0.45842948767855884,0.3076618971918241,-0.5329824665072428,-0.8479709912611441,-1.6507836963934148,-1.4249868307931859,0,0.0,0
0.9570000000000001,7.919198216610993,6.655502688582674,5.575787256937152,8.91541070230662,8.779276081482257,10.103464813257297,5.9734044727745585,7.510751433810623,-0.6731075199685477,-0.2963042727517856,-0.8212173634123494,-0.1296678258832248,-1.1445170921619627,-1.6456326434173594,-2.086383043279932,-0.9613378584749984,0,0.0,0
1.017,8.05424778336648,6.432178627177195,5.187923077329341,8.571382030616677,9.196901479528464,11.507036666112239,14.500668075301432,8.49529182739238,-0.56199771824495,-0.3722515504591694,-0.9460859718737852,-0.24290016316141616,-1.0500389617639019,-1.4985756638551655,-1.0503060590787734,-0.6799195461367145,0,0.0,0
1.077,6.80854791275826,6.212947484229329,7.560070957517667,8.680276755426384,10.066020663871644,18.692318593799964,27.145475996127672,9.343049400189809,-1.0473123347137516,-0.4461963380081942,-0.22889223207316545,-0.2286395799428572,-0.8514967335048578,-0.48034142866434526,0.8798538596432502,-0.5077217752180346,0,0.0,0
1.137,7.85940424527742,7.173894627097028,10.365308162242538,11.313033041601091,10.378783843809021,22.695593846298785,30.892867901929563,10.838323627230178,-0.6185582210249799,-0.08227635102788554,0.7984137312459195,0.5421859237447866,-0.78267512244731,0.1560244887494561,1.570476566814043,-0.14743290054552133,1,0.125,0
1.197,10.13437771730961,8.538410935458156,10.818936701050104,13.710107632917175,14.35679512451767,22.986948244552273,25.276623370742406,13.032059585687842,0.3166857006851704,0.3840990663597988,0.9899000543997136,1.3190521358127005,-0.030120045903215247,0.19971320473105614,0.7342674760486679,0.3183580145581353,1,0.125,0
1.2570000000000001,11.854290775720708,10.404243441693424,11.861410870725878,16.875113561695425,21.132526861832,21.154493041877593,17.892495896478753,16.255118620416223,1.0779132248342462,1.072067052233209,1.3173879532594128,2.2384235085378963,1.4975102101523963,-0.07043876377880792,-0.39904901619579497,1.0645151045579249,6,0.75,1
1.3170000000000002,10.707915630667562,9.59897901473508,12.791380674243273,18.27737401542412,21.45288630387916,16.22674898789242,11.505550699842441,16.509075199764883,0.5268035888529533,0.7195224609942228,1.6528080057684678,2.697488755229448,1.578800670982923,-0.8114230019979448,-1.2702390839996427,1.1266769356142685,5,0.625,1
1.377,7.936068949072801,6.315528050022913,9.977705146694614,14.563272972087814,14.826481585607421,12.423421777023513,14.97991172389128,13.084049515809411,-0.6170458015623773,-0.47870531023246965,0.5670038102676116,1.4514124261023316,0.051322982976037344,-1.2853140886518613,-0.858974012202677,0.30612054838651853,1,0.125,0
1.4369999999999998,8.97779598171751,5.639365922597422,6.985459490247493,11.854695445046206,13.370208940896175,17.89067774545911,26.107932392588285,12.065095042878012,-0.22341016142186831,-0.6690871261478738,-0.3272205177762931,0.744187291379299,-0.1956674932376454,-0.6142103538964353,0.7466195387602678,0.11016441611040151,0,0.0,0
1.4969999999999999,11.601728949012175,7.28094563564842,6.199735380128847,11.943487839466675,15.390271708252811,21.53632817528254,29.285936167915672,13.488460379918273,0.9622234438647205,-0.0573571160450553,-0.6340806359990864,0.7422893019358553,0.2877116693526108,-0.026335677058063015,1.3224465543961175,0.4530852195570209,2,0.25,0
1.557,11.784911438297746,7.105314711693001,4.126228956899153,8.339969218833367,12.329646811797232,19.4099747005818,21.580389053699907,12.027941700068384,1.0543081292078385,-0.12917194914683164,-1.4362396855958528,-0.5867040491342682,-0.4610014609015305,-0.32488726984423655,0.09948384213551142,0.09931708927168016,1,0.125,0
1.617,10.161679031813103,5.167591342027176,3.380371561847736,4.665644455689023,9.654040763586046,19.822215311723856,17.51116006079354,9.905560156072733,0.3526352389830943,-0.8521301106640836,-1.6287684901348243,-1.4697027365396902,-0.9540067566113967,-0.2615652071227234,-0.3952192375367965,-0.3585617431030293,0,0.0,0
1.677,8.703445448559362,4.023916271505361,4.749619004142213,5.7988260540756595,11.139280127100376,19.4649084159026,22.556182820283,9.047099048848326,-0.25157395151328604,-1.2253926337744623,-1.120973198515335,-1.111180967006036,-0.6221550812584452,-0.33097278513969314,0.34562822913993224,-0.553508884016224,0,0.0,0
1.737,9.036775856593588,4.303913201684444,4.494201777501694,5.572228037067618,12.631605930809787,14.41231667543197,23.611511623599853,7.501246190833614,-0.11450325436758714,-1.1242498772523044,-1.2106263657493839,-1.1740798123966318,-0.2926132424588923,-1.0393922780759157,0.5265604200840698,-0.9306068273544157,0,0.0,0
1.7970000000000002,8.585723051043093,4.3592724220483845,6.712459997218039,6.318748237656024,14.507368512977385,13.636242050129955,20.072223954607583,6.732175774731701,-0.3350323377324469,-1.1049650667730093,-0.6587635291885318,-1.0020053752600055,0.11793520842374838,-1.1287537429537453,-0.0025514500200489384,-1.105593218465712,0,0.0,0
1.857,8.026395372855701,6.060125038926426,12.012955780953313,10.550931967831389,16.412754472849134,21.58461815303684,21.87558571319166,11.52361035776677,-0.5598614462459509,-0.5841775434491899,1.2278465451346448,0.24384513613127068,0.5440054379224638,-0.11856051554047871,0.23648566768762394,-0.1558068597780364,1,0.125,0
1.917,10.376977081466327,8.64695506767786,13.448540496309539,13.136204129778603,17.83304205556995,26.074280510116,21.449510425977927,14.927656791964877,0.4095738354575476,0.42325021754007003,1.8814724689986262,1.152340798424505,0.8601226745647063,0.6054499991926168,0.12813760177215847,0.7716515695023207,2,0.25,0
1.9769999999999999,11.249829533644997,9.248377897660275,10.128468988084876,11.766424651051784,17.48809687646346,20.830171716176054,13.801146416051518,13.194602291640454,0.8315582980598945,0.6756325301681144,0.6264276729378385,0.6759833347133016,0.7813336944947257,-0.23806725477667637,-0.9971808638463937,0.33591242176807584,1,0.125,0
2.037,9.626349672710933,8.105307398961623,6.127551365387664,7.787760915553979,14.238805203253797,12.720175810606712,11.101833795370734,8.884941688526352,0.1016218005470233,0.24354949514061022,-0.7034234461277112,-0.6177673606530916,-0.010015091787984709,-1.2617598159208756,-1.3046498542498797,-0.6605205350912745,0,0.0,0
2.097,6.606576844664026,5.908421296182727,4.787305909435912,5.098972028293032,9.147142958853456,10.617135463128736,12.946788786329336,6.074151501769213,-1.3024587200030286,-0.6406945228370619,-1.0811600352089492,-1.3222875325752714,-1.1885614233152295,-1.5238262753731975,-1.0271628139252633,-1.2339453179104354,0,0.0,0
2.157,5.215575805238801,3.710279022460125,5.870041300002823,8.718030037404645,11.629243343386081,13.694609040251544,15.828829761426649,7.553048982574555,-1.8027409781745627,-1.3561746177192002,-0.7247857533498133,-0.3946677268514868,-0.7935204964325951,-1.173565103562249,-0.641538432262395,-0.9605933392984847,0,0.0,0
2.2169999999999996,8.234093326682276,3.38973080481326,6.806698519252459,13.265660236073506,20.837510896939197,23.061846734597893,26.59642821554636,12.244292273314818,-0.5712513438312848,-1.453497279801395,-0.38525481856797567,1.1317593245775317,1.3366337329814655,0.06609197366802007,0.7664599820238859,0.07453832962916457,2,0.25,0
2.277,9.475694478999255,3.761688678063791,7.746171199384081,15.528701549439551,23.37004635109612,26.88333109971685,37.3560466397459,14.82771799426906,0.07793272496037766,-1.3341346523044237,-0.0794939896076851,1.8837670946748173,2.0589706748802077,0.7305721562513816,2.4980279906218876,0.7617314268610597,3,0.375,0
2.3369999999999997,7.800844617073901,5.765635108137942,10.74394825848872,17.713417982672887,21.748538071662715,26.677988485562047,39.06975920223922,13.71666024873447,-0.6826853029093609,-0.6748688095446381,0.8869408357425383,2.528307076355984,1.712123388598961,0.70102448666648,2.787027133601058,0.4917872853352432,3,0.375,0
2.3970000000000002,5.316207714300338,6.460848861633597,11.071514482795743,16.81068520552897,21.609201210497964,27.41707490967634,30.105568125559458,10.05643363018079,-1.733506301426291,-0.35908268435166074,1.0015484031646278,2.1699817576772715,1.6680763208009266,0.7976334454489064,1.289814873326965,-0.4272260910825109,3,0.375,0
2.457,5.293903080823976,5.679648085856535,8.12883087690156,11.538710679574539,17.161158892755324,23.156102166821306,18.329639369347323,7.154558116142104,-1.7663168499335313,-0.6395416368910328,-0.003015367629934068,0.5321190792192377,0.5460536629438639,0.1546129897688774,-0.3227136610924278,-1.0142326183443748,0,0.0,0
2.5170000000000003,8.922786764987455,7.204557836803738,8.664212692841659,10.314169896621054,12.908830474828568,21.416941805052204,16.94926571468456,10.108626795997905,-0.3127444688894902,-0.13265563396225474,0.19247707567712444,0.24347328031929974,-0.2471866523860771,-0.04826928141553855,-0.4576380911513365,-0.39846426421086845,0,0.0,0
2.577,10.868683807077488,8.21679887676471,9.779473268812993,13.813589042980452,14.685279533304017,24.410478474845814,16.472007969201396,12.222328659115709,0.6694696353489934,0.29693412929196056,0.6384215316795309,1.3126765309529038,0.15480612772649355,0.39309256799182374,-0.5460156822552781,0.1692288856642559,1,0.125,0
2.637,10.990735647497498,8.961054244705412,10.307349170167216,14.570305524139988,15.375273466803893,25.555949333232334,14.176573849087161,12.539426752681862,0.7185033249270831,0.525624396415734,0.7986311371663191,1.5784345472299393,0.3145080846456636,0.5532395432996547,-0.8773094950139552,0.23713653646404564,1,0.125,0
2.697,12.64247738176877,12.156000747400704,12.191607198101574,13.062780024662857,21.06834974328131,32.37248476034642,23.525634259135924,17.56303098748388,1.3834284986945218,1.6466424667475852,1.4462065729504474,1.1266834452628711,1.4029971133346681,1.4139529841104548,0.29823576106161104,1.239094014354077,7,0.875,1
2.7569999999999997,14.86105421675967,14.079903351606456,12.114930797771894,13.156544539694787,26.55187175499727,41.65620859230548,29.679221076633496,23.781890067467163,2.3477307310080238,2.434826083314723,1.4283966192725137,1.1601292031641337,2.7458303204951986,2.751479096712203,1.3859074754655882,2.744202847814824,8,1.0,1
2.817,16.332702199188322,12.997873550211807,11.47419176447649,14.569149038173752,24.313244887501302,42.94960604054311,24.858464381614,23.744032452622733,2.9737440611923867,2.0126043697552367,1.221250293953382,1.5877730674529855,2.2279623900777366,2.967274684590937,0.620727558602518,2.7548547587580674,7,0.875,1
2.877,14.32951386085042,9.791274977232366,11.35715380176735,13.757847402321811,18.738053747096146,36.22545693306757,21.65150204541513,18.250861720640437,1.9838996850280426,0.7645130595291256,1.1744807265278667,1.29595034232056,1.0244837836089569,1.9812109117980679,0.22916197461765267,1.4659482855311854,7,0.875,1
2.9370000000000003,10.866344275648892,7.016267097319419,9.35360629654873,10.070886209262936,14.411399174857145,26.513236425203647,26.396515649229524,15.976132348206267,0.6427747115369682,-0.14190173517071222,0.4434538331532151,0.13916849455670344,0.051048685001918066,0.5772748823614118,0.924725572017317,0.9910944080944429,1,0.125,0
2.997,10.94134478844722,6.846008347026661,6.730222890450719,6.9540554319970855,12.865451846262596,24.81306356534791,30.792025045329343,19.375577260263164,0.6948142639422904,-0.1937049555231848,-0.44913861122938553,-0.751474868697394,-0.24259787252204815,0.3957839289344795,1.5787181643065615,1.7488672959811649,2,0.25,0
3.057,10.749147381851174,8.288859254017394,5.626480143446554,4.9050107796709455,12.306984883763745,26.339289030655806,29.895896270943695,17.962990557247434,0.6154971823407195,0.2711391442221125,-0.7988706797263373,-1.418210100315713,-0.3882915436513706,0.6400281608378694,1.429431525917728,1.3553402715082086,2,0.25,0
3.117,10.763705161236164,11.677900768187847,6.469872874426985,2.749960750741379,9.281515678118199,22.733441074731473,23.532804810452145,11.81555513366765,0.6235260345101568,1.4691223502800772,-0.5174991413141476,-2.071893114899479,-1.054835162779663,0.15472027492827867,0.48184325109252807,0.018450973049097236,1,0.125,0
3.177,10.016183419011986,12.331299639895756,6.615395609159679,3.137213872421923,8.596458151599276,24.349423115833908,19.955714551917488,8.218117538974754,0.26715500686442323,1.7597723734227133,-0.4582237806435466,-2.0076181465932437,-1.1844725084583054,0.36538844357209554,-0.0001040949903513555,-0.7908728141803024,1,0.125,0
3.237,7.783847359629844,8.565209633811921,5.221066538848896,7.652073981842208,8.874400185325984,26.723412169411876,21.700927664211303,4.99371452971454,-0.6498835637851685,0.18643468739509236,-0.9616565992960014,-0.7480850017735173,-1.1210377118890216,0.7093493213471401,0.24861017838535918,-1.5706083006015013,0,0.0,0
3.2969999999999997,6.784584438978628,4.262017730384336,3.9451457618801076,9.487429808401723,7.62391748653485,23.499284926064554,21.49317657833901,3.8529236486522827,-1.0473359641953506,-1.2323955545030065,-1.3807634020438642,0.01723193670500714,-1.40308230372346,0.2282658815223951,0.21619479698065933,-1.7776682577879601,0,0.0,0
3.357,7.110551481882193,5.853832870384436,6.079557461004584,8.943890434475227,9.302263870910052,23.937179121096797,18.830556486234723,7.41987734816947,-0.9249466424804741,-0.754297675460398,-0.79205096379496,-0.1386814692497636,-1.106849714813225,0.265985878316408,-0.16790528543576363,-1.0388167741328134,0,0.0,0
3.417,8.84098456435676,8.483705605431668,9.510863168457423,9.301566512658693,13.198532191997835,30.794865738294032,23.307004526671207,12.302467950781208,-0.22227070991972056,0.36488203239150474,0.47723581667264314,-0.030469878047007525,-0.21750492240030309,1.2411848001040549,0.40565681388176794,0.10555772018450764,1,0.125,0
3.4770000000000003,10.086065210753496,8.634700768761878,10.04281984324058,7.667863089157405,11.635842828529336,28.050878663218192,28.2928820410755,15.630183654079234,0.34507738681233974,0.4477245821009122,0.7068192097965617,-0.6410206909082828,-0.7107889183660193,0.7494927223963251,1.198023785232028,0.9309069697499304,1,0.125,0
3.537,10.457999763259194,8.810791711397794,8.4205522384749,6.255715641416514,6.846731162826273,17.238627025207027,24.555676172884333,15.146630506698923,0.48674689115434205,0.48753528203755847,0.15038746067628864,-1.0222942548963274,-1.679675498206917,-0.7243343459288761,0.5914894315738609,0.8189868563235546,0,0.0,0
3.597,14.10645898925811,12.868044768028694,10.091782087268854,11.852358742381792,16.280887796952452,21.067729743869865,21.328087463622396,14.478511115036865,1.8758191097779269,1.8440929581705126,0.6596836779089382,0.5120019745003503,-0.02617613633950903,-0.2708011660631448,0.17888061139748124,0.6785991280191691,2,0.25,0
3.657,16.224020335164727,13.736260167792576,11.270118195108726,14.184723807513807,23.783304800842775,27.87101357852125,25.173953316482574,14.917317953178175,2.9200289578198295,2.224525488490182,1.122038425235486,1.4088190191724017,2.1021758855338852,0.8539368774305461,0.749782263534271,0.7828066911533943,5,0.625,1
3.7169999999999996,15.53202721922924,10.26177388241397,9.278860011685836,9.849781084574316,20.77647858955132,26.42949708206075,28.691225543683725,17.032726242538867,2.6422746565324675,0.9662815575720818,0.41870213215621127,-0.25239855668207706,1.3078246281201478,0.6571022240316114,1.2727759149386617,1.2173554405213005,5,0.625,1
3.777,14.470129721786785,10.30143858678276,9.326126925066935,4.1787911535286675,11.786053133079728,22.81445065999514,34.93337950547079,21.837733462718525,2.1712808556153758,1.0033122482246888,0.44245471408515086,-1.6372422214815934,-0.6354393772312978,0.16674127697072325,2.1514939950650738,2.316076435476195,4,0.5,1
3.8369999999999997,11.48217993436663,13.949327908104708,11.777256474321398,5.627007680830925,9.513555734250994,25.82129471479524,34.603111192987996,20.875037107769064,0.8363486114224479,2.319794179496941,1.3045670829905651,-1.2143424874400857,-1.0227676156352445,0.5479100117181305,2.0645588260555585,2.00732138521532,5,0.625,1
3.8970000000000002,9.029118544017415,16.77062782832162,12.442259691863878,8.667369672106581,13.953158408196023,28.466314679941185,25.284166397592614,12.985762100798732,-0.11298659019863744,3.3970897703869904,1.5544138689834677,-0.2622047589176684,-0.06961063263597997,0.9461907891844271,0.6844507441283553,0.05505526138028568,3,0.375,0
3.957,12.186626344719535,17.123294928006178,11.500881043757696,12.528857442437433,17.957720118161934,22.979660575084413,18.97614014055337,8.884604656655236,1.027241058113635,3.535023249605588,1.224077386382709,0.8849919534321833,0.871680121068381,0.09336135935293903,-0.14741098090732113,-0.6514604086431987,4,0.5,1
4.017,16.153247801666993,17.203911283091244,12.16075929101933,16.605048959590935,19.059976968187083,15.398532574510464,16.21267092722212,12.674233733236907,2.818230673921479,3.5597579448711976,1.4401781595471623,2.152129201508735,1.1185791994466883,-0.8877621539732211,-0.55972249610907,0.2131624184427324,5,0.625,1
4.077,15.325878459497066,15.80361854241885,11.628804679055783,15.83709392432293,16.377469016291926,16.29736577817996,14.216206907057993,15.973486355372613,2.46335829851693,2.998218351412211,1.2163821168594084,1.8815666246715441,0.48636611084236203,-0.7771469056690444,-0.8344241611932702,1.0041509224892116,5,0.625,1
4.1370000000000005,16.959226808156387,13.3373161395978,8.957427892996527,11.400035136245918,16.412967352114748,26.655212855652128,16.985794594959845,21.625627029514618,3.0483173967666244,2.16049696541096,0.32609230213246176,0.5865223234226385,0.4948850334367571,0.5414054175909749,-0.472406234935367,2.2072241797356087,3,0.375,0
4.197,18.848570901439405,13.026076890315492,8.596692872959064,9.179687213283366,18.704808772167514,37.111746970966934,18.236076258879713,23.126406205847584,3.927225514616993,2.047170347912532,0.22325459786977775,-0.07442594049447342,1.0220986226972066,2.100593715421818,-0.3034252258598204,2.5579772782553167,5,0.625,1
4.257,13.518472883663216,10.891538488389957,7.442990594975616,6.447447004101392,14.235216025810455,34.00248875111787,12.288358077646604,15.357213430733426,1.340942074813188,1.174257713762797,-0.26470226796334456,-1.0462687357377762,-0.23854201902371827,1.5626985884832718,-1.4322095876129746,0.3397848795212262,3,0.375,0
4.317,6.885597091953152,7.532335610934445,4.896531765574817,4.851373490246114,8.127744269343223,22.6681940994062,10.79542739548395,5.133350248342729,-1.0786039058756385,0.00929792827095297,-1.0731114550530034,-1.448771391996262,-1.3591038448389725,0.09796058789958528,-1.670622486197171,-1.6030629536129943,0,0.0,0
4.377000000000001,7.337203026792838,7.276616074459873,6.055993382625352,8.501434635340567,14.35885596918779,27.352525438249213,31.182373095870073,10.918679635041812,-0.9070875221619322,-0.05560125570882201,-0.7212896705217693,-0.39615618927052143,-0.1489434384823214,0.6724587807330301,1.0397480266346752,-0.6000173978947533,1,0.125,0
4.436999999999999,9.519411560492445,7.678021854723316,8.78290847550904,10.849629485945835,18.132207071297255,32.38150718534613,42.75612406551612,17.13578845560228,0.06825805022109366,0.09694753509525296,0.2535011600201714,0.444351135348724,0.8873758055052597,1.4557064501035637,3.271903938003352,1.1910769044895542,3,0.375,0
4.497,8.847509937333827,6.134941553221653,10.700550000562906,9.58845755050359,14.080908785475511,24.781302789279223,35.32563888239375,15.263802331909964,-0.23961520639027722,-0.5118992019723505,0.9476917764337774,0.018718623405641666,-0.17610607215563542,0.20263129596161544,1.9982879493027228,0.6847018492373058,1,0.125,0
4.557,7.887175274080537,5.7482536950168255,12.339345493194271,7.355868962030081,7.37838448383767,13.87238134125096,22.54813380275047,10.159387203014882,-0.597068662123596,-0.6343144397452879,1.507019617495178,-0.6091930774249398,-1.5022755424673104,-1.0927100962793739,0.35939799523494914,-0.3330309372630265,1,0.125,0
4.617,9.42935725461419,7.981773715942864,11.861415796865824,7.266520904863458,9.709760288109686,19.412641233907852,23.46194479054733,14.195448114690043,0.04323739115424217,0.16829617485357062,1.321318009785432,-0.6325079889311408,-1.1262552709817355,-0.487820249013953,0.49010214328136875,0.48020585345194694,1,0.125,0
4.677,12.254520614682601,10.868641222521253,9.649509083502917,7.598497089229272,19.43375527320389,39.0045305526183,30.22230409832389,20.776741199624663,1.1930743425729091,1.2179215266830505,0.584064988604,-0.531754906203987,0.9419332508436655,2.0612240809606113,1.4470257681324206,2.04324216224717,6,0.75,1
4.737,12.23690390660327,11.941898044200952,8.66338568051729,7.378665051722949,22.296701356839147,44.447756289213835,28.575033755342563,20.536457076812926,1.1587775134829477,1.6517524727917137,0.2559758922731134,-0.6020278826492299,1.7897615612796507,3.0536393374264783,1.1221064368044558,1.9651722389468713,6,0.75,1
4.797000000000001,8.71976479071245,10.796503082287026,8.408310643651227,8.56370366332373,17.319112297618982,30.51316067952525,21.357594706104347,14.69809333137808,-0.3285335804299863,1.2299929034531416,0.17078550333037726,-0.2808314556637527,0.6745588425941517,0.9431216778785089,0.1369475961018234,0.6623598144135703,2,0.25,0
4.856999999999999,7.618315510185297,8.957345387281292,9.167466320063538,12.487031017582451,17.41054595572401,25.526970205600517,30.507447020867946,14.640685472886378,-0.7102126539220287,0.5432366044444488,0.415334325708617,0.8665857556982957,0.7019770816339488,0.41612995162037336,1.3389336956400906,0.6793542648534122,1,0.125,0
4.917,9.289334092682234,8.488593582520478,12.565833677873117,17.750982395282886,24.598484928116925,40.14442104557821,42.34055966895517,17.309490308309726,-0.01687212379051392,0.3827391830936436,1.5000996589422748,2.4785983477914217,2.259169045639461,2.4204788325386786,3.232467478763908,1.3249882162344016,6,0.75,1
4.977,10.502117685829882,9.594549848972738,13.619334773329088,18.431155680084093,26.1112712836415,43.35833834485823,40.59728597637571,15.570523588973975,0.5180471806076486,0.7953161763798321,1.9101852088217208,2.705241371785286,2.6375811532033926,2.966163985905965,2.9080355564656792,0.8677376280444333,5,0.625,1
5.037,11.311411240051312,9.86166577204359,10.130853248794697,13.456528254006454,19.204010299593936,30.355722687772076,27.646620945347607,11.46548224929394,0.8596530462553359,0.9026502858204878,0.6266725585601108,1.1048720005563164,0.9789497359041185,0.9406323769446754,0.9718157618945068,-0.038373531993599296,5,0.625,1
5.0969999999999995,11.247506377064088,8.68660267649593,8.101193193492897,9.245429536420342,12.186759049238958,15.050849155378852,19.487224884138588,12.151060174539996,0.8302573707875359,0.43768922862386633,0.04327544257451361,-0.04081373449284235,-0.41522348196425,-1.0519902925241793,-0.06875964543481615,0.10770828602219613,1,0.125,0
5.157,10.68336498633041,6.5845584019293515,9.164328485553481,8.417121267194188,10.863174508057423,8.477101533578141,19.95372687505182,15.133409083140348,0.5986125387000776,-0.3271245481538041,0.41240405008655473,-0.282004912734226,-0.6757144586742078,-1.8417618218889438,-0.0006341684461376255,0.8138650796344851,0,0.0,0
5.2170000000000005,10.10277709346362,5.735963613316714,7.684340424228036,7.2005908817748265,9.16566495083198,10.707819404698292,21.24984032692598,14.140252165730763,0.33758433545095423,-0.6012197293394241,-0.20284014606147135,-0.6861311975544714,-1.1214025456087786,-1.6003127030987256,0.19135863453532453,0.5628352061148681,0,0.0,0
5.277,8.280337552718994,5.016935512979723,5.618869936309851,5.568223792589437,5.912570335295375,20.519524734283884,23.32359322406521,11.582549633904197,-0.4664664392378668,-0.9021133231657354,-0.8190667312141805,-1.1562953441107002,-1.8042645924737952,-0.3170869766390161,0.4828464602482196,0.023631966691789474,0,0.0,0
5.337,7.214432249946485,4.420753705944326,7.354186380562489,4.933716776850577,4.584143865853926,23.374738559014922,21.18625740206172,10.2772596880475,-0.8717183446183344,-1.0943038186132528,-0.24506876320865623,-1.3442104262495427,-2.0646706126378764,0.20083052501639054,0.09325790774704974,-0.2916041858037993,0,0.0,0
5.397,8.188119723233985,5.592578684628002,7.855612683381433,5.290332920210225,5.55043694487374,18.665442309363442,15.089370534160185,9.63762940177498,-0.468402424013467,-0.6701023575594404,-0.033266188530107856,-1.2513235533681857,-1.9077300052137944,-0.45631203055649056,-0.7584103189305061,-0.44170759707313006,0,0.0,0
5.457,10.176842808171703,7.977140650422829,8.235838056174261,9.270738322796644,14.073759392480579,27.84441455816877,25.168723301745555,15.195633650408602,0.33761691985068637,0.1323439447980548,0.06745934199894642,-0.21569935424479192,-0.3667637110074136,0.569796281583656,0.4243487062499713,0.6713200940572622,0,0.0,0
5.5169999999999995,13.030747758276659,11.90101203498244,10.47747667283386,14.76651950902659,22.999929699497294,42.67411710243719,38.219021016875814,20.659669894058965,1.5366680929442016,1.5386531561134476,0.838178884359522,1.533386566078888,1.8713843243006407,2.821437749266281,2.579977728703459,2.05738867482937,7,0.875,1
5.577,14.123380214163227,13.875241684561706,10.250757514016525,15.987197224060854,23.5241856056228,44.62001207579115,39.460614644644046,21.276727830235792,2.0452265668706944,2.360371041315404,0.7642014105987659,2.008439307831336,2.063326619826054,3.175850898190092,2.8315041924156596,2.226571743351994,7,0.875,1
5.6370000000000005,13.123713326542992,12.68919838611744,8.695850612837878,14.644974725013137,18.778621010434605,34.60177986758921,34.02978793120562,20.4297335028897,1.6161372032224506,1.9067751778901367,0.26721149203112987,1.6172459402679547,1.054848584767843,1.7167229589158606,2.0563628679615626,2.038786888436303,7,0.875,1
5.697,14.780665230595794,11.195208722402098,9.231045887016258,13.151594665520411,15.58325023548486,26.779779416774424,32.53251179031647,21.141418057277804,2.2441934032846484,1.3792190132272395,0.4477387308442613,1.1213419018110955,0.33523130650131905,0.7061017033234122,1.8426179669584826,2.1991643244579384,5,0.625,1
5.757,18.87448643862525,12.213100768329685,10.181115400180621,10.347742292228519,14.802936169554293,30.636618964157947,37.9391636987626,23.671680150796213,3.995772920587941,1.731601814782753,0.7764254961863276,0.27924280696786236,0.16935605750675853,1.2052845386188764,2.5852090617531336,2.757412092246559,5,0.625,1
5.817,18.211924724236585,11.50445597920053,9.163631338917655,8.019213038312264,17.747566436749416,35.5323246054185,38.31850393364375,23.024727108036465,3.625600621682747,1.3735091305665088,0.3582039155677664,-0.44436994315990225,0.8138209541691365,1.93731706164902,2.6139444876268785,2.557189310265951,5,0.625,1
5.877000000000001,12.173544686681016,7.023254609692475,6.61789170353976,5.957477661499002,17.26104571014881,33.63155948295034,28.236907195265466,15.912333111517757,0.9308294339610094,-0.40389568076616955,-0.50135992971289,-1.0612967878923856,0.7002346097253516,1.6625489230966322,1.0832882372006973,0.7688126895939266,2,0.25,0
5.936999999999999,8.495719224589077,4.898508729133692,9.576625711210472,8.75392707378505,15.176125652344268,26.922884547138597,21.378339294861565,9.360012463553199,-0.34409926406632757,-0.9732915865760684,0.31866608240796007,-0.38803761272113685,0.2672249942612927,0.6852107823472484,0.21367902702893035,-0.5048688918399927,0,0.0,0
5.997,10.30288995422691,7.622716989308895,14.251177729333616,13.789878681403469,16.906416277215968,19.927372382880915,21.765506897435415,11.357348768576463,0.3954671569221924,0.007666238977717871,2.0989606715796643,1.2578526108925114,0.6414682580266838,-0.2612190656134508,0.26897446966224686,-0.09335250701867871,2,0.25,0
6.057,11.130198497658,9.318177757889698,13.78886550991744,13.929431778337209,18.05001920434281,23.670228664557218,25.338050679195113,15.070170200758007,0.783179862666947,0.7000182223453071,1.9331508812924676,1.3221152298327168,0.9121069055646832,0.16249227612636846,0.753246066936676,0.7905663578750323,3,0.375,0
6.117,10.607890795685558,8.579124338693351,9.519055682601993,9.07770119566404,16.091541781598,32.63432876364027,33.15496565590011,19.665713290751555,0.5660548460921726,0.40297528078707695,0.46904634845951115,-0.28280142768321176,0.42065854252634827,1.4747678751630853,1.8706164419488465,1.805917759610037,3,0.375,0
6.177,10.427134519596999,8.276576315932504,7.089726429703197,5.437859196509809,10.698466775144759,30.437521591839012,35.54468763699844,20.433533191746193,0.4918118512644533,0.2654915530261836,-0.29428385840128574,-1.2175963164419674,-0.9581601412126491,1.102999811843407,2.275280695963176,1.982227595595856,3,0.375,0
6.237,10.385930280059206,12.411758562955356,8.487970904183076,7.24714187776057,6.178357492865974,17.428240639639817,31.427106911182833,13.831248903304783,0.47291637027961775,1.6558623270120882,0.12934707934510922,-0.7173667648189994,-1.7360612798172352,-0.9055136775035103,1.671195201410172,0.1899619131043179,2,0.25,0
6.297000000000001,9.032797257515806,13.487821408762462,9.730902793493973,8.984604651473136,7.477901616369226,6.830776637705808,25.961488696252772,6.607507749676732,-0.16028707545963025,2.166647406516444,0.6002234053784148,-0.12475876373635782,-1.4360229195353436,-2.128598087755826,0.8407500737836876,-1.1702074313763993,1,0.125,0
6.356999999999999,7.25107093227053,10.456711110877082,9.305667375326998,8.509804228954685,7.5504628470726525,13.028090136043877,24.61616734523701,9.139172675743593,-0.8685743587146831,1.071183299778452,0.4440234716457498,-0.2728371514341474,-1.4111307418466952,-1.449540252327526,0.6487259844700267,-0.637471075375308,1,0.125,0
6.417,9.656264110708332,10.051397738147804,11.493377999314081,9.53444097303831,7.684343012694741,20.802289102016253,27.08929553540503,10.781010863956233,0.016582795900689156,0.9488527816293367,1.141121440674098,0.009076714679167597,-1.3900218904152946,-0.17565250905156304,1.011367570466515,-0.16696714587910977,2,0.25,0
6.477,12.798231189684019,10.92499828149773,12.055664458952101,11.294094083138058,10.430375841807354,22.00179891483653,21.932299612381627,9.961339617373033,1.447358142526156,1.2789158244976992,1.3873086559826044,0.5928134558969499,-0.8244572226675996,0.05119455699565578,0.13410529558225534,-0.34835227665825313,3,0.375,0
6.537,12.595601314487366,9.940330456063142,10.317458208601932,12.487183062507892,15.447703589284849,22.462173080048146,16.851385150756283,12.392408504939185,1.3731762556496154,0.9095079661529663,0.8199518647639951,0.9497724383558607,0.2591848550645726,0.11051605282421588,-0.4961572085125241,0.13890500506597173,2,0.25,0
6.5969999999999995,10.71741090844496,8.676472391463859,10.19392215148549,12.750263900141707,19.463681348913234,27.46083017559965,28.553118293095046,18.633403258480467,0.6056770108616248,0.46941448201471636,0.7851565161049542,1.031063110916685,1.2094282206809928,0.7976791411463874,1.0226467738771299,1.5253846671606135,4,0.5,1
6.657,9.124175449316535,7.527333102050936,9.239115885875737,10.177882552578767,18.811816788594317,29.118830561966167,38.977880344785774,21.320427816469266,-0.10519381998313054,0.028844167667054738,0.4285467189831412,0.16447984371238136,1.0448944397923758,1.0462243228431367,2.746285369696597,2.224052263940512,4,0.5,1
6.7170000000000005,6.513134050003958,5.9695329097004,8.41377394371623,8.0316139738735,15.688195913568517,27.99363270282647,37.34899204001608,18.137118504957996,-1.2711878110499233,-0.5269277197075923,0.14861383874956366,-0.4461521065730428,0.367459800384377,0.894461673042858,2.4918867478081466,1.4594489992897717,3,0.375,0
6.777,5.415887187525675,6.216783335994026,10.38146464483333,11.599326848834378,17.12481028499214,27.152198029771718,31.242849764952087,16.570880046395608,-1.6697764116380978,-0.4546817449173825,0.7937234397984702,0.5401477352922727,0.6660356552775996,0.7763526153206776,1.6420081785485963,1.1433947784668095,2,0.25,0
6.837,8.378375997492236,7.467373757030473,10.101093164274701,12.290746572636676,17.225220863947605,23.188005198204102,28.402891253229463,17.646452145293114,-0.5126716733962827,0.013756598037027437,0.6673987638424655,0.814745836907659,0.6791388176436474,0.185313319354988,1.2021770608097333,1.3963032364015353,2,0.25,0
6.897,11.030420445781449,7.317579897796189,7.131917829374303,9.39167525995195,15.041344313500774,20.2993136501105,21.017583756118242,15.6914298962102,0.7230148220471037,-0.034250401504929785,-0.31605089659130114,-0.0347371626496844,0.21471837230193902,-0.18861039174056124,-0.01504713428082031,0.930420505439472,0,0.0,0
6.957,10.474822057720838,5.704055283707593,6.938222123611191,11.050014930830802,19.367926820652045,22.601324493000675,12.055789153117399,12.220851376240496,0.43932650337913476,-0.6621260575297502,-0.35327189624579347,0.4414057371574663,1.1021153432438706,0.13195187743330805,-1.18325636336396,0.13269170288136836,1,0.125,0
7.0169999999999995,6.982314306866165,3.6688450235832186,6.731628331355917,11.175985905501827,20.712498081916213,22.314114070946637,11.498202769206815,8.786092969634277,-1.1768756761493042,-1.416972048288076,-0.4516456725782305,0.46547355982511407,1.4517815716733555,0.09410757655220753,-1.2873730414979285,-0.6736963831902084,1,0.125,0
7.077,4.7176443055426365,3.21921920297123,5.056736200750888,7.2667348696353775,15.630530659582716,22.643378413658922,23.757110770005973,8.623126840156974,-1.9683435724295961,-1.5502423927215911,-1.0224715671495377,-0.7583881254863942,0.2849982288480324,0.1312671831039324,0.22454698964047234,-0.701029865625662,0,0.0,0
7.1370000000000005,6.987735552924003,5.015091078719022,6.1927147371391795,7.5923901927143715,11.602675491077658,25.207029387112726,33.25533146434776,10.859542467926675,-1.0712141175439112,-0.9182944703045858,-0.680382826654009,-0.6581242739407457,-0.5173880032905376,0.49813317048023703,1.9111728490173585,-0.15230995672043457,1,0.125,0
7.197,7.879977699913129,5.43006040714752,7.544780817360229,9.800563552536529,11.978772354130257,23.845044762510813,34.943957790274524,11.214814795902367,-0.6102924757593127,-0.7306837351256069,-0.14410491780267096,0.11777996200797097,-0.4378626672815334,0.30417900111286417,2.1975128185843467,-0.05763983455427879,1,0.125,0
7.257,6.1421025247506575,4.102935652357782,6.3255487424427415,8.992584797009915,13.181192315926825,20.32946921660283,30.153197410919795,9.852834576509023,-1.3899830260016632,-1.2278310524965412,-0.6078072945106786,-0.13432075397078044,-0.16489600757227693,-0.18470444040987266,1.4002029360402644,-0.38985256222031395,1,0.125,0
7.317,4.316286559995428,2.9796612752230103,4.196720181838205,6.575545646328373,11.64866857193794,15.320167162132805,19.12683386255778,6.95993404891574,-2.103271151599201,-1.6053104249255776,-1.3096886786607576,-0.900153232902404,-0.5650258476279223,-0.9610624577368633,-0.38447913420041524,-1.104201312201094,0,0.0,0
7.377000000000001,3.3492045613992025,2.4869969598683825,3.030687650200825,4.126524133735505,7.161686521279428,8.864222030484811,8.451361880487145,3.81263963749962,-2.5215458880240393,-1.7820606964371806,-1.696158773432132,-1.6601971806400393,-1.6744292354022783,-1.8302950820710429,-1.7511595802081292,-1.7998663450025003,0,0.0,0
7.436999999999999,2.934808221197776,2.143656572469503,2.503686877678136,2.4994522295540356,3.0538539880718494,5.773897368126882,4.831492813200311,2.270557424827507,-2.6772722754266556,-1.9047625506861665,-1.8651531452831147,-2.090506701320328,-2.42768166580711,-2.2022285308407006,-2.229518208787247,-2.0981667858180777,0,0.0,0
7.497,3.591120882960061,2.2551549403475133,2.6659602225408077,2.3221147325631972,3.034113296247826,5.805474963552242,4.0549540601258975,2.784973468497643,-2.409845893143222,-1.867215653518575,-1.8124105141374602,-2.1403938895443315,-2.416215190857009,-2.1962987680706934,-2.3242048415784526,-1.9934259504882046,0,0.0,0
7.557,3.404181551381836,2.1249754481052943,2.5154741046493125,2.845098407191122,3.3707899264010033,5.478835112235913,3.905746522423212,2.924455735316642,-2.5108374110221825,-1.9289822202855003,-1.8773235679213969,-1.9884762781318701,-2.3298112495018892,-2.2487510868120486,-2.3523796279745124,-1.9556124553760057,0,0.0,0
7.617,2.136000683915994,1.38367276123718,1.5850232970118163,3.1352133317890614,3.3665787645424143,4.339157642793919,2.637980646402334,1.9862715973679017,-3.0581571898640765,-2.201724164052417,-2.2331147855668294,-1.892840360904944,-2.330776766782371,-2.399900413599111,-2.5529010105065613,-2.1778065688728407,0,0.0,0
7.677,1.2318993494336439,0.9795408053023282,0.718958716142538,2.5047961651931403,3.826831371460516,3.70146480854489,1.5278023841301207,1.3235265343880886,-3.399623379500579,-2.3264119091833386,-2.4951232298046535,-2.1157949814555383,-2.2311713262399038,-2.4892513781730856,-2.694628498612495,-2.3083535177360814,0,0.0,0
7.737,1.2388777436826615,1.0364784576994857,0.7145500744357693,1.429630804465497,4.031149956873615,3.4113758012691187,1.8439627363005948,1.5494212655170965,-3.398557945093453,-2.305869869841672,-2.4894670468050175,-2.434883479420285,-2.1837966009641807,-2.527474695137472,-2.6549323341350632,-2.262050006076175,0,0.0,0
7.797000000000001,1.613849748836001,0.9720450073324527,0.9043530567413761,0.9774200810852236,3.7034224614032722,3.6754950159341773,2.3568570078406905,1.7899319412483985,-3.236460960946961,-2.333712222625465,-2.416029299941479,-2.548603445668724,-2.2579732827774603,-2.491184698165156,-2.573115239999602,-2.203858896012965,0,0.0,0
7.856999999999999,1.4585682267089084,0.6494471074325758,0.7987741061652962,0.9372838541604691,3.2621920864011362,3.385425782601298,1.9934517781655599,1.379079922510475,-3.317162928679043,-2.463526529389821,-2.457698872001697,-2.5609736302508654,-2.354180904611071,-2.5354626217239047,-2.6376236614098167,-2.3206597505758877,0,0.0,0
7.917,0.8762252796486122,0.31693735655564104,0.7199304963462938,0.864172061835635,2.908756789696447,2.6553364340626615,1.1401191747569683,0.8409706329420162,-3.5535992261847755,-2.573060486319247,-2.4839725672683834,-2.5828134611795757,-2.433613257181447,-2.634618610738288,-2.7534305824273684,-2.422597118404476,0,0.0,0
7.977,0.7977279451618134,0.4336878962560456,0.9848623235226135,0.9998111578730514,2.3304492052237817,2.093540226055284,1.1125696039051762,1.2187095533850378,-3.5785027503080493,-2.543207359775689,-2.3951193728908375,-2.5483596336185186,-2.5701114972554833,-2.7156082444816256,-2.756382208528757,-2.3416825750597003,0,0.0,0
8.037,0.9798523894004489,0.8161538189445102,1.0491208135958456,1.7828671061774275,2.7941490016495876,2.7947524995888067,1.7060200353339587,1.520873662118042,-3.497085403945403,-2.400595445423384,-2.366732272374735,-2.336682227009263,-2.4971403592842276,-2.6390985666342344,-2.672330401082099,-2.262618207332061,0,0.0,0
8.097,0.965965193878061,0.9229454230072394,0.8291799015412507,2.237213580151882,5.072797680242877,3.9026871084694617,1.8283142262534275,1.3352561932144884,-3.5020583407876593,-2.3486424941759103,-2.4459003806609467,-2.167361016022846,-2.011000357291228,-2.465306183692125,-2.651756869763539,-2.31219191424341,0,0.0,0
8.157,0.8742180302417479,0.6933249687717069,0.672848075236189,2.3296768706711557,6.449405199149923,3.7301264226840214,1.2483026979593537,0.8636539672852194,-3.540005217846556,-2.438749995489008,-2.496937244904929,-2.1410963387691013,-1.6521393368685624,-2.488222433317093,-2.7463565150465796,-2.420318959689864,0,0.0,0
8.217,0.7337171253355925,0.4603940742620258,0.8433956953442538,3.403429147108465,7.308022850409815,3.5600751306277294,0.9450816747656258,0.6030549799073283,-3.6053508904331344,-2.5167854760539092,-2.443187505627105,-1.8504622453376918,-1.4697281681221153,-2.5102081441296162,-2.781257061209571,-2.4715116918101834,0,0.0,0
8.277000000000001,0.5139152559450382,0.5549809382335287,1.0800972211886102,4.486152045000776,9.120174419372681,4.432776737388823,1.26855312073514,0.7098111551619647,-3.69583261655338,-2.487510060956811,-2.356117405425311,-1.4865666248766702,-1.0798725208320132,-2.38963079831614,-2.731985905273611,-2.449047617367004,0,0.0,0
8.337,0.4169812349456821,0.8738904107478767,1.170421896449228,4.669204119477654,10.707831469798451,4.9697541611601395,1.3854662776547837,0.8086168366096271,-3.7327503462470943,-2.3727079705428156,-2.3240441945796966,-1.4243828399596834,-0.7141635773270405,-2.3102767874887995,-2.7121071211200065,-2.424176095933594,0,0.0,0
8.397,0.3631504303462656,1.0052312860322066,0.9575302837043553,3.841327677687498,9.544579092864518,4.497096418005132,1.5206710363777343,0.8918121504419846,-3.757078842489513,-2.317654151452812,-2.41224560575369,-1.704610561640206,-1.016931038355563,-2.381359482537819,-2.6933639500081608,-2.406381398809454,0,0.0,0
8.457,0.36983589444158155,0.8091271343682417,0.5629387890722222,2.909201056147604,6.709575780796608,4.499376903562363,1.624826592975173,1.0007787232665193,-3.755263798778572,-2.398141169202951,-2.539338929053761,-1.9646580867046497,-1.614169977764493,-2.3825830689128584,-2.6772798172345293,-2.3807734263152915,0,0.0,0
8.517,0.47566287586005374,0.5193328471873649,0.5686431118162036,2.6694654930778614,6.510493235313238,5.511756118889342,1.4080209281784455,1.0425491514861702,-3.7097545575863715,-2.4985446887542726,-2.535757662850238,-2.0399129533999862,-1.6444416890241496,-2.2385684531648478,-2.7109553383907787,-2.3709122594314826,0,0.0,0
8.577,0.45861979805983566,0.677789007486181,0.7789941183090685,1.9576338173845618,6.970213300924269,5.412506730067502,1.1697486676776332,0.9720050158080792,-3.7177061160905644,-2.451641522732008,-2.4612354307501025,-2.292691098261902,-1.536857145499825,-2.2550058605766368,-2.743714087145292,-2.3886629881193575,0,0.0,0
8.637,0.5453159363674264,0.9488287721879435,0.972333970480338,1.1710634249586411,6.887761970052623,4.081967482938259,1.1141004433253352,0.8454958513065834,-3.692873093196443,-2.3404517175386492,-2.393602665147427,-2.496714748575808,-1.5582784948283634,-2.448398211791522,-2.751732270230461,-2.4174041871263054,0,0.0,0
8.697,1.1606535613392868,1.0477168015225868,1.2708450210794648,1.7723750580964512,7.761217797519908,3.265563825836831,1.3254821919478275,1.0512681495997651,-3.460374354985787,-2.301271512704616,-2.2948156983510715,-2.3384033037194065,-1.3730606326452353,-2.5474692479284173,-2.7237924094883486,-2.3752889573612825,0,0.0,0
8.757,1.414729334068997,1.0496820281232548,1.3938536981291594,2.8357112478532,7.310244715524877,3.034226515369555,1.536322305079813,1.2496047453547487,-3.321695266994128,-2.3013929900212715,-2.249172459887608,-2.0033359967122095,-1.486421293319878,-2.582688063137003,-2.690487788632477,-2.324576847193803,0,0.0,0
8.817,1.0329986468683143,0.8861290720833787,1.1707580673393014,3.7056328582869105,7.535979610217486,4.165270772230292,1.4542887758901448,1.2717996636953663,-3.506488083620002,-2.3661408227026217,-2.3302433172503476,-1.7237583005252042,-1.453156026980708,-2.45780611353967,-2.7025632182916044,-2.320291028063951,0,0.0,0
8.876999999999999,0.6162274572048236,0.7716802803628648,1.282773284123255,3.8180051293816155,8.78922142028597,5.683630211852151,1.5300403974489452,1.7086517141259332,-3.6507684244878735,-2.4034186413123426,-2.296527645352775,-1.6919791661719386,-1.1622353213053809,-2.2216963722039114,-2.6924062998575278,-2.2310282516854394,0,0.0,0
8.937000000000001,0.6498863896228628,0.879555312654134,1.5184145370296698,2.8661092498833285,6.609243675163182,5.034134779227394,1.809055322991059,2.056713499660531,-3.6355271092526813,-2.364325295162858,-2.205442931172883,-2.019074698586807,-1.766482048195477,-2.3241751017025076,-2.650738219170853,-2.1418785943842567,0,0.0,0
8.997,0.6402053729213951,0.7615859351482019,1.2534950990220095,2.043975609469495,4.469311011821476,3.863024021628916,1.8011870679629933,1.749518427960162,-3.6390859219466125,-2.4155941574362703,-2.310045837890611,-2.226784523116092,-2.1357306180178335,-2.465711789250462,-2.6523057462208666,-2.221018859328167,0,0.0,0
9.057,0.5828564875276276,0.47940519605765186,0.7464029716127146,2.270120462068271,6.3947454156833965,3.6573775216703583,1.3696956352881238,1.154130939098038,-3.6626162555155513,-2.5110593593682173,-2.4835922031748923,-2.1555130184480267,-1.6938144254769405,-2.50021566929066,-2.722261164510501,-2.3522185528807147,0,0.0,0
9.117,0.5782954744651946,0.6969149660029886,0.6699431210971202,2.6134976405140278,7.662577431270159,2.704571693829386,0.9322237819476913,0.9414162711506081,-3.6647180103949073,-2.4507351236881365,-2.5048177665805844,-2.0565809855738606,-1.3921679478625881,-2.641024065486396,-2.7795980723681963,-2.3940775354764345,0,0.0,0
9.177,0.7104533399440646,1.1169648578288116,0.9198901887460437,3.376862425204226,10.919603567216152,3.2615790722598073,0.9235717097119772,0.9926922535209943,-3.6136106930766156,-2.2877086191683813,-2.4147629427664525,-1.8317437457374164,-0.7446049200112347,-2.577434177574448,-2.7799845986389067,-2.382450932188356,0,0.0,0
9.237,0.8851329000284532,1.0745637177429865,0.8544199210194544,3.3553870892215074,12.10607854798115,4.014111939216869,0.9469272557987293,0.8525488770371578,-3.5370027337982886,-2.3047594030496557,-2.441074639242902,-1.8419106248323598,-0.44035051858377133,-2.4507936870748575,-2.776406620376379,-2.4196019280992798,0,0.0,0
9.297,0.879154659826801,0.6838319461971537,0.528973544383985,2.2529023365348726,8.633195077676024,3.2830473220666563,1.1228677126793323,0.5907916614481171,-3.5391896874120845,-2.439029942686151,-2.552075949447678,-2.1948845617023083,-1.2892605763423897,-2.558438680307463,-2.752855738758505,-2.4754878394439905,0,0.0,0
9.357,0.7428976473692196,0.4997847753239367,0.4776898390880546,1.5655972432265979,6.575512147120203,3.598827128985309,1.2321974103018525,0.5723118741980111,-3.596403582622239,-2.502117005680186,-2.5681867524075175,-2.372814618403722,-1.6506646688593092,-2.5219976076345048,-2.735485434982205,-2.4784690244185694,0,0.0,0
9.417,0.6468468890973752,0.4244958770374556,0.8217765188596432,2.0230475046236878,8.967883602357437,5.991752674770855,1.0704545357888118,0.6236809188179813,-3.6359856342376395,-2.5295857292644497,-2.4584801230604887,-2.244676454042967,-1.1255598871054533,-2.1978621168453905,-2.7598117818691708,-2.466358545358404,0,0.0,0
9.477,0.7372655490349496,0.645614015760207,1.1913225859466432,2.868319060806716,9.340589281385986,6.751277249925487,1.180039044248725,0.5739106623450222,-3.6020897311969873,-2.461006593627842,-2.321170324903673,-1.9856491369662332,-1.0309926460226102,-2.0753469701027223,-2.745259543984941,-2.4783160455310296,0,0.0,0
9.536999999999999,0.8350929767406687,0.7939201171073936,1.262446543442992,3.126348516403838,7.696789758928036,5.06967635784538,1.407716800784369,0.46761619779823854,-3.5574352270173653,-2.3945441136061567,-2.2926714208798726,-1.895928734270373,-1.3969169877969814,-2.3301067559387225,-2.7092280527396873,-2.5024222706440478,0,0.0,0
9.597,0.7812878043694961,0.7451139029970884,1.3049487020969068,3.0117417210297246,9.887992468170228,5.367423438490637,1.361847262419361,0.539087051299318,-3.5800212421267474,-2.411339802380349,-2.279130253382513,-1.9291075688210377,-0.9803729086256662,-2.2942509513596225,-2.715912379757233,-2.4889893724252103,0,0.0,0
9.657,0.8623561259208579,0.8040496016395722,1.2307677107507722,2.715875579764117,12.254594162846907,7.307216556485196,1.2030929524157008,0.6875368230060797,-3.5489281647192903,-2.391708981068484,-2.312371901557177,-2.0303886569324887,-0.38015644123825004,-1.9945547493159974,-2.7393974518630313,-2.453144629564688,0,0.0,0
9.717,0.9310526949398841,0.8961554568347255,0.7748682240207266,1.8858790722570482,9.989569652152166,6.480372830491164,0.9291175737881028,0.6696474287614042,-3.5192745317660568,-2.3572499050644065,-2.4833241245019515,-2.2977297052374595,-0.9886889635243837,-2.1379358895251257,-2.7839035821058236,-2.4568799376811357,0,0.0,0
9.777000000000001,0.7197381807732843,0.906518198011274,0.4536675980714356,1.1683636743849397,5.2927423578829105,3.577188228367996,0.5938263028025119,0.7738495656975366,-3.618563651440926,-2.3540297454784396,-2.573867736797688,-2.497366542483651,-2.0081145855462923,-2.5567289047000594,-2.829224361090615,-2.4363752611833567,0,0.0,0
9.837,0.6354232232836746,1.3237897089841986,0.7424140613162343,1.1317281282405096,3.8316580839541383,1.7962456343189932,0.5745835625546112,1.023563015738477,-3.647203117102744,-2.223605044301798,-2.4873239567516827,-2.504417538299097,-2.242442867320197,-2.7534091091698554,-2.831373749362822,-2.3769210468599717,0,0.0,0
9.897,0.8291806507901094,1.6679389275489478,1.032388680951152,1.169777229150348,4.107059284501825,1.7209042318417287,0.7287562659647087,1.058967790566976,-3.562303473571646,-2.0804079948938363,-2.3736501669796093,-2.492769460633754,-2.17788274515149,-2.762094564761535,-2.8089904056171373,-2.368310837186422,0,0.0,0
9.957,0.7561034450553129,1.3751383441279301,1.1750173956323244,0.8018282067784089,2.971936752305066,1.5785639133379277,0.6780729372436369,0.8551133618866696,-3.5991590099679716,-2.2056136099506904,-2.322142881623432,-2.6324033922747803,-2.4573080307446715,-2.782782855157673,-2.818767023327354,-2.4173419338123723,0,0.0,0
10.017,0.5379190729187963,0.7721719671804316,1.1214499005815277,0.3654648625465506,1.9832465123887872,1.6288008724745913,0.4079952567767093,0.646266865176749,-3.683302236451357,-2.4148258905199063,-2.3426277432811307,-2.7500689519561328,-2.6406280300927256,-2.777619770541332,-2.8589233688291187,-2.4616191917971917,0,0.0,0
10.077,0.47159591226521264,0.5784058328294841,1.015849934421625,1.1543931720056173,3.9414315164537213,2.760039500529635,0.3235193285906836,0.4927281166006615,-3.710271570528489,-2.4737896100034926,-2.377512233541552,-2.570985666192214,-2.2956554631462436,-2.640007761753406,-2.8687661684142767,-2.5007371374116505,0,0.0,0
10.137,0.457124627227328,0.8769549755775502,1.150856802468454,2.011083280772448,7.119082400168903,4.314544268913358,0.5474993529240724,0.2924612840735071,-3.716220829233641,-2.376490253006566,-2.3325511693088936,-2.255742653209296,-1.567335302523506,-2.414729478140344,-2.8386130185008516,-2.5450549251784214,0,0.0,0
10.197,0.5383838446908487,1.0922552155703464,1.1086615505908428,1.9072681943756087,7.757092866361095,4.7245899952444175,0.7896865201776107,0.3223263703470403,-3.6831358500913454,-2.2868800348114826,-2.3496307313953513,-2.293027115353057,-1.384300246721292,-2.3466322004897537,-2.8005496977843305,-2.5390096593253113,0,0.0,0
10.257,0.6590199891733791,0.905793816905816,0.8880312631960061,1.116443712539805,5.408804091143317,3.6989904687566972,0.8624041000716255,0.46043296253474825,-3.631979561480135,-2.3659872839347247,-2.4219085039287758,-2.519175164280105,-1.9466027429344104,-2.5009615926234905,-2.788649478910401,-2.5046619018536984,0,0.0,0
10.317,0.7272591535999481,0.5928965590591051,0.7038094852897879,1.0784386688075194,3.323351247322443,2.7169295751047997,0.7895002424065748,0.4755600578160278,-3.601630993724532,-2.468281378636017,-2.491772167425782,-2.5236643953851785,-2.3449718229115515,-2.6248557330492255,-2.799449831171343,-2.500234821858118,0,0.0,0
10.376999999999999,0.8176138270036571,0.5243524414279002,0.47566860668044125,1.239467380716885,2.984194263726616,2.3560943173328344,0.8262768067414201,0.38694052549138813,-3.5657533593954565,-2.4912102961998612,-2.5659491238340224,-2.468830052131906,-2.4145698814869667,-2.6765576497996886,-2.7944099570582535,-2.5211850146768637,0,0.0,0
10.437000000000001,0.9480179946842799,0.5452343635494401,0.4316882612491829,1.2432568023923734,3.018436614156428,1.9244763379780636,0.8894855712033625,0.3329308780054155,-3.5097987554865377,-2.4844181570446433,-2.5781397756512447,-2.4674391881207893,-2.408273247359246,-2.735503212349286,-2.7845659391042488,-2.532749343093313,0,0.0,0
10.497,1.017840195604053,0.6622570868139916,0.52350835180199,1.3874414651047688,3.6455808756307486,1.9385932755800346,0.881376830561222,0.4588861811404426,-3.4792632104117343,-2.4431145079409324,-2.549413413131998,-2.4249820586826747,-2.2768334519368776,-2.733303445070636,-2.7857503707102595,-2.5076485642034316,0,0.0,0
10.557,1.058487467988263,0.6944941300868661,0.8763781406148531,1.3850858489095175,4.126107424501105,2.5031160095968388,0.7738992761819947,0.7289781699694209,-3.462303146623747,-2.430428147370187,-2.440525808526331,-2.4260685282385803,-2.1627510205233382,-2.657961114806392,-2.8031547474734313,-2.4471930762408656,0,0.0,0
10.617,1.0121211461628505,0.5750853994113783,1.1190852107896063,1.2996270712897529,4.5415896759681695,2.9377009979382107,0.683688332234927,0.8859103513476838,-3.4827238342417353,-2.4754614022305916,-2.3436574179083034,-2.4507826754184046,-2.073959772431787,-2.5937616057665682,-2.815359962872742,-2.4067272356774554,0,0.0,0
10.677,0.8142899339576309,0.5540987915030273,0.9366517585817852,1.2373669459875503,4.511166712202619,2.490346113829198,0.7664770700325537,0.9324422633339866,-3.5725601655347154,-2.481999198438156,-2.4164802808926846,-2.4717208326818025,-2.0834972042068345,-2.66808612868595,-2.8031869269930563,-2.396038943996443,0,0.0,0
10.737,0.516473251326354,0.6698032369262201,0.8733767626124247,0.9450591407814415,3.452467013221349,1.5033822101107832,0.70854950483784,0.8863809703146172,-3.70946526265953,-2.439515383761948,-2.4363721253411605,-2.566265296233784,-2.332264278140927,-2.800075516839568,-2.812354329050049,-2.4073016375244123,0,0.0,0
10.797,0.2846853820362088,0.7639731022214136,1.0487668293390182,0.7477867602075744,2.194171217689968,1.005265825190647,0.7261721385848824,0.8992445605937662,-3.790042883143119,-2.4047493551576014,-2.371430931518099,-2.6194227678785857,-2.607225724162632,-2.8636970336958325,-2.810372173154173,-2.4057991178996687,0,0.0,0
10.857,0.423248032158779,0.6663867797234335,0.8021018307862166,1.0226143371006553,1.7325748103274348,1.8287403157455984,1.1497141145826726,1.1778009510861938,-3.7411977401248357,-2.447856895975923,-2.4792794792177077,-2.543729444108323,-2.694924671750132,-2.7794091644333054,-2.753166541551115,-2.3444082966727335,0,0.0,0
10.917,0.8375188702385211,0.5053706898333039,0.4229938767756032,1.2621177977002551,2.673516905715319,3.391273255580673,1.7748153626336272,1.3028929466962185,-3.57803395275549,-2.5014620251497544,-2.5861601470740365,-2.4625993890760403,-2.5111470541941094,-2.5518993955292473,-2.66144761289007,-2.311808994875649,0,0.0,0
10.977,1.1160207898388583,0.8426143080875328,0.7638240196027803,1.4304917742816727,4.026251440508586,3.6603625650247804,2.0880962376588084,1.2758396756377834,-3.441181961479718,-2.3964466639672124,-2.4871847222117833,-2.412540217816765,-2.2018432079062515,-2.502971879293363,-2.609344759581728,-2.317856953915236,0,0.0,0
11.036999999999999,1.100268902050285,1.255109217293408,1.2792893482630985,1.6459854744326345,4.22726115088151,2.3615078477336255,2.272943929806882,1.2520652156983116,-3.4458746777113274,-2.232001548674223,-2.2987189564535635,-2.346042824256863,-2.1470821533712243,-2.7085455128055838,-2.583398237197409,-2.323378262331394,0,0.0,0
11.097,1.3623379745012434,1.4741409761484001,1.632153944266069,1.5024112090945343,3.1788839151880035,1.5946070047276366,2.686804728164176,1.3216204474424602,-3.3528608739987966,-2.146568061445625,-2.1660830144018193,-2.3983429987913945,-2.3912152072818857,-2.7896030792972826,-2.5234154538862086,-2.308393540726676,0,0.0,0
11.157,1.9695507053124577,1.3498890641769936,1.520769078774034,0.9700375261082993,2.0777048424000557,2.4958569120198697,3.127908357784208,1.5295872250455054,-3.092871073536855,-2.1983885671292307,-2.210885145178915,-2.5689214960642786,-2.6279837585859838,-2.665456724225175,-2.4583465189383005,-2.2616072123483444,0,0.0,0
11.217,2.237323105592202,0.9759107198321391,1.275474594210744,1.01516962565268,2.6084177005660143,3.7269612119572257,3.866656157436697,1.919524682157203,-2.964655310994593,-2.3359799946986475,-2.289914396319196,-2.562136408059646,-2.542643440377373,-2.4951016570609026,-2.355228897209599,-2.176600044798445,0,0.0,0
11.277000000000001,2.459253463207861,1.5243528294692614,1.824848691019775,2.392118351198225,5.720112743932345,5.974522871963896,5.479556388962111,2.370471040308445,-2.8795544896767176,-2.1898080547150833,-2.1268572208196326,-2.1928537504063903,-1.9205337970838567,-2.2026841416710976,-2.132223083823865,-2.0716406368762383,0,0.0,0
11.337,3.26315777240927,2.720633770822943,2.776257576872104,4.210498074816722,9.170059818011717,9.343951972027897,7.715578643140858,3.080452015853909,-2.55532195945704,-1.7345876320850104,-1.7919574832473861,-1.6108172442321935,-1.0977795509643553,-1.7352734016057692,-1.8033478824951459,-1.9179515990064464,0,0.0,0
11.397,3.556715032467373,2.8553223008561757,3.1690089958377157,4.61280370648863,9.35644821057356,11.156025766746096,8.838635910935913,3.611752064105836,-2.4124578596867337,-1.6634855464497071,-1.6350394645333128,-1.4513270233627626,-1.036967760472681,-1.4500421524295382,-1.621832119367444,-1.787632217904876,0,0.0,0
11.457,4.3142260735344475,3.2267072498085194,4.494311016080989,4.763771606695673,8.540401382855544,11.430022556902117,10.91428127809064,4.799930661826715,-2.167540260644222,-1.5984380949792085,-1.2742094526018672,-1.4327335260763148,-1.2189815122539915,-1.4136749281283096,-1.3586435906456105,-1.5609067913671704,0,0.0,0
11.517,10.331365281166995,9.545760405413933,11.407476452592528,9.879984373502014,15.79256041426683,17.57027576605022,20.59411439913481,12.065048704322942,-0.04878731711955283,0.2608077805764548,0.7322027102733824,-0.12703187425786178,0.13137579126458568,-0.6903626082249589,-0.11152499391200521,-0.20312763161826608,1,0.125,0
11.577,14.709107273250153,14.485996363240117,17.78829225893277,14.906195596652191,22.05804642109992,21.96901424996849,26.28458942960132,18.409805289437106,2.196868495747128,2.4804667641654743,3.272059489186198,1.6217040477352225,1.737503560618664,0.013942455486897163,0.8791380571495705,1.4943442231204662,6,0.75,1
11.637,12.688972404828158,13.993598983942372,18.61040616578626,16.09089640438031,20.323624781361364,19.864853846353004,20.594741704934155,17.57292662805715,1.1939672581514686,2.338853965757966,3.6606260619557776,2.0554677011544156,1.3261652954177576,-0.28820257821374345,-0.11360434913815208,1.306965415622428,6,0.75,1
11.697,8.882046389351267,11.773807610105905,17.15260687728156,15.57380014717113,15.80796496049422,25.273583683174888,20.40417488712708,15.297575600785262,-0.2175926217586788,1.5960855404733898,3.1826094629988533,1.9007510194631214,0.4086475680296891,0.361269705689603,-0.1926008634176912,0.8209974545549527,3,0.375,0
11.757,10.860483220375018,10.696942710681927,15.258467032948033,13.96346218622857,13.583104347327504,31.965150334154192,37.371229999554295,20.050328394059374,0.5872234390184911,1.1669126646410766,2.4496120192509823,1.363755920157664,-0.1260293483671542,1.4339671767997582,2.266443760506021,1.8600389986069938,6,0.75,1
11.817,11.90001741377737,7.992437367933047,10.67264292070222,11.797263736243583,10.48625783953102,30.317344608096416,44.352427846460124,22.097461256566984,1.1051488095003623,0.13554660684020206,0.816146195064264,0.7213116733938345,-0.8235036607731746,1.202165536243523,3.563712309539089,2.41319065681448,4,0.5,1
11.876999999999999,12.933981855670757,8.1276947724735,10.162741872273488,15.9623896860831,15.975010424328177,29.806274253785283,39.82709994168836,23.010176960113082,1.5060329888969644,0.18385991331913468,0.6778579414889853,1.8428547343065498,0.16337605211050418,1.136905584201716,2.8941845222467006,2.6056374491916223,5,0.625,1
11.937000000000001,13.765344158168386,9.577059939540717,13.039511871843974,18.279066582028697,23.18530380584831,32.87573508811691,34.65263666371767,23.540483525795953,1.8714568125952045,0.7739463371747366,1.736514276251426,2.690409665389821,1.9872286195127007,1.5711432678598287,2.1357022797909946,2.7036703016536783,7,0.875,1
11.997,11.102245187158372,7.779519585221398,13.343421546733072,14.861137418802883,23.773130152205685,30.17908472558263,27.595979095638842,17.29871354342306,0.653217856496742,0.04664728402131937,1.8649533380695937,1.6063585727218248,2.16015879553907,1.1537760042471106,1.0358083988685538,1.0416092087621818,5,0.625,1
12.057,9.192674136002337,5.820020120924693,11.850224036124054,12.28879751871216,22.149093114007506,26.337934462150535,29.1589385414574,12.929469455460563,-0.058347673771443676,-0.5767463979193329,1.3436355294028315,0.8936118181971203,1.8163331563635976,0.6406826657952166,1.192042210422291,0.22634369752456954,3,0.375,0
12.117,12.6699616845304,7.21595704960505,12.063199531742455,14.099800913371936,22.577307649159824,32.81142340310881,41.66140873999256,20.244718665231293,1.2926870289264663,-0.10123352668417109,1.410730750687491,1.4168497658958916,1.908412026260785,1.4837444757255183,3.063307232586159,1.828848943207319,7,0.875,1
12.177,14.866746818733107,7.548803789164224,11.683565722911405,13.6109409148602,19.655673666911284,33.82715882132683,39.67914315770367,23.98859850969389,2.33886550833768,0.043552131846857356,1.254642380656817,1.2309329736323824,1.1887781890851368,1.6576837969925327,2.7160597211541457,2.834920584299882,7,0.875,1
12.237,12.51535119586094,8.013207092501661,10.725085917179259,11.087497835054814,17.140725896424815,27.681737360628784,25.95998664306415,20.212813733266657,1.2520154386326456,0.1720401003713902,0.9439305423496163,0.5164536645400546,0.6904207666957648,0.8371749498572232,0.7948362579092133,1.8900793403148886,2,0.25,0
12.297,10.337681062663373,11.821603151584469,11.52818820389143,10.399723745022698,17.578040837059504,25.659021427457702,19.101685667735964,14.508620790730369,0.4295045773291764,1.4919959589605902,1.2304733918514161,0.3070833607535796,0.7925296903194932,0.5711155063706884,-0.13914652445500833,0.6588447535589702,2,0.25,0
12.357,12.52030213859355,14.196433287469247,9.988401629559165,8.389323420122615,14.650478067712616,30.961769611266813,23.211856836576487,14.419599229030485,1.3169190992634452,2.4633770979157465,0.6315717803074307,-0.3448545375097615,0.10867383981937184,1.2161824531013683,0.3188178169302585,0.6496979999835479,3,0.375,0
12.417,12.344039853417282,12.270425546459236,6.692615928105107,5.818330315405303,11.916860255666993,43.967056564379654,41.773860344348996,15.976823109732788,1.2141272221277521,1.6720281995308186,-0.4841858276417474,-1.1039066682169099,-0.44682525176191484,2.9985375690968232,2.862263195210763,1.0226945980830497,5,0.625,1
12.477,8.240642776718559,7.702654356865909,4.699688632866386,4.910051599414242,12.265083481424892,47.10756152897573,53.14136079280952,14.083334161228844,-0.6475382649872377,-0.058820411624879755,-1.1215142557241549,-1.355845995914305,-0.37014564707408265,3.5137417534390107,4.819995637620564,0.5481303107551573,2,0.25,0
12.536999999999999,5.83974077070691,4.858727764665056,4.5741071378112395,6.650353616540603,16.105509742881356,38.12478311626164,44.11891412268492,10.229463359458624,-1.4945304240836645,-0.9567467398539476,-1.1741879800358908,-0.8824579426758069,0.4043810673267747,2.2351134086671074,3.2337653406734765,-0.32526187622586133,2,0.25,0
12.597,7.364333341864726,6.701551764875975,7.645950413354129,9.859794395489619,18.592664133653653,28.079217764200898,24.052878107282886,8.136941478046632,-0.852942772189558,-0.3480129834681273,-0.24331684959820618,0.09602112313897208,1.0010198723371462,0.8169713662862425,0.33647245240785706,-0.7582151029986898,2,0.25,0
12.657,7.645016067481259,8.337119524478707,10.299593847025678,11.43871311087778,15.193509271664531,18.46838364126084,14.138160950563243,8.815875214078831,-0.6989303657584441,0.3454457520916434,0.7983564474053203,0.6344718439719557,0.1657187845422254,-0.5660567685801455,-0.8650716212322139,-0.618244343126197,0,0.0,0
12.717,8.476517734804487,8.324426170212597,9.644865550719212,9.639364590427617,10.26956870073738,14.06413935232591,15.899104692638852,11.687476421654138,-0.38859701723564166,0.3436425802407778,0.5523891017154022,0.01512472728145973,-0.8229546494341783,-1.0552485842220174,-0.6157934311831439,0.007108463130501462,0,0.0,0
12.777000000000001,9.997939262705435,7.465608808254165,7.407918974511999,6.556099237201278,8.92547935929468,17.326619738416316,16.06884275700983,13.932592126259573,0.29873985047389195,0.014070324238502824,-0.193019946347339,-0.8817591361712492,-1.108515427751002,-0.60920850809023,-0.5857196857649808,0.5582070225174779,0,0.0,0
12.837,9.121088900376602,5.989073294213222,6.8591841995045435,7.0464309622219785,11.627000872334364,23.345672745781233,15.989999284372006,14.861076146945315,-0.09959182138224361,-0.5269453687073744,-0.3647882942882179,-0.755333007688571,-0.5954237419727288,0.1901741786703237,-0.620870248005121,0.7714711593397863,0,0.0,0
12.897,7.056742573549186,4.6862962715989465,6.207068854172424,9.068009209701634,15.30711213000694,27.632713824211482,23.67503136351642,14.677030428763787,-0.9621149678511389,-0.9948296937789932,-0.638222994501692,-0.10639108918296443,0.27672251582426877,0.8330991538114924,0.43245354624097665,0.7206704702864127,0,0.0,0
12.957,5.258552199136019,3.669117415299554,4.000706140868359,8.549773100009848,14.550984191076129,24.69801108190026,27.51238805007591,11.666973481727275,-1.7415169651124314,-1.3654280043408626,-1.468099940044308,-0.27654566000693853,0.09915205220127044,0.3856470028298944,1.096661297602388,-0.04102651394874957,0,0.0,0
13.017,4.504270114236955,3.4937143765417917,2.8441379673882854,7.47220371272005,11.762003165336056,19.766790420880266,21.71834626410733,8.095900663818583,-2.0174196463601675,-1.418039943476188,-1.770182311091899,-0.57622528755604,-0.4834390184665869,-0.2544020278745552,0.12399652411471017,-0.7809218993978414,0,0.0,0
13.077,4.403012759447748,3.428912887035329,4.211264946554589,7.446135398430963,10.016551233421584,20.502352931530858,13.946532499480849,7.288036844074546,-2.0703067379371225,-1.4499432145300384,-1.3160908269537674,-0.5855963554155252,-0.8830329625900979,-0.1644883056498659,-0.9122346459029491,-0.9507190883932061,0,0.0,0
13.137,3.6548721222539733,2.738725800609546,6.111204005511637,5.7968144388803955,8.520514508513445,29.195119294160854,17.57014387305436,7.928220164219222,-2.3783788604622216,-1.6981363514982182,-0.6621032161043775,-1.1561324871606768,-1.196342576596354,0.9356713754476843,-0.45169990786278164,-0.8143791258322194,1,0.125,0
13.197,3.5967348954199663,2.889175990459825,7.099059151836953,3.773592667491543,9.516064407273184,39.463737975047856,24.646040690751875,7.74504132312299,-2.3944657247434047,-1.6442319983268334,-0.28209730604886785,-1.7230013761289575,-0.9946175140326984,2.447067120929605,0.6508617777135964,-0.86734653297049,1,0.125,0
13.257,4.245017276237058,3.54996934685328,6.898432161340313,4.933218460678664,12.718153092518188,41.28635876691132,25.678194521086176,6.051498926835399,-2.127705399600941,-1.3958015522072447,-0.3508961090161891,-1.4170802542800194,-0.3093910707116031,2.700663916233752,0.8186907351287777,-1.2467174084933204,1,0.125,0
13.317,5.167240641432247,3.8347361539968543,6.417052361976473,6.770988331768122,13.282705002352472,29.576492903902945,20.222774207402445,4.646455489077214,-1.7419310859645598,-1.2878014398054562,-0.5183717777752673,-0.801937926808061,-0.1669167726075864,0.6643329294477092,-0.02928231138353668,-1.5670194558505492,1,0.125,0
13.376999999999999,6.05555152634242,3.6579716392623274,5.656880145047066,6.393918569059266,9.846712686253273,11.911879537623543,16.259765341771498,5.1236890592112685,-1.3611398633075316,-1.3541470946182945,-0.7870363300312245,-0.9301231624717422,-0.9733913315555686,-1.5041086248677427,-0.538299410377107,-1.4909933584201058,0,0.0,0
13.437000000000001,6.354053441713536,3.629686107648761,5.233993575378481,5.206308827391149,7.112733497790615,11.198592912510543,18.520724446963957,8.249245061619765,-1.2286330068182438,-1.365753634074648,-0.9263621698785404,-1.2676269928338089,-1.5112593534781908,-1.527269758925115,-0.21852103952875138,-0.8000911525668984,0,0.0,0
13.497,5.452032589470067,3.7703891497975803,5.351904965480902,5.271680130666882,7.416808452622403,16.17547623569347,19.001923529129126,9.776467305507174,-1.6511375188741344,-1.3195737480727694,-0.8911103128810055,-1.2534271136085215,-1.4426372133027219,-0.7782127847465592,-0.1451613313837823,-0.3889663362568598,0,0.0,0
13.557,4.1567173828456685,3.146105154551345,4.52729041005385,4.209370778980488,6.859623054774455,19.65713761646032,19.6215688171452,9.14623338770282,-2.1812726269249687,-1.571802191625203,-1.206962276831366,-1.6490408314821605,-1.5829592886426138,-0.276126643013171,-0.08005599571752255,-0.5356078019395797,0,0.0,0
13.617,6.927791966024947,4.521522122484932,4.827358760046662,4.657396945337679,8.299262226509475,25.253463199446646,24.229688641191863,11.594056181668746,-1.2636234820791745,-1.2076862291369175,-1.1440377949153742,-1.5882163442835304,-1.3757522753120577,0.45684833423338495,0.5846016185909952,-0.06181254642573597,0,0.0,0
13.677,11.852588730056578,8.525846032222113,8.98406618002563,10.077398048099838,18.018210344517307,37.82246494614957,22.88438885596114,16.271135004849235,0.9215283922930193,0.2570439250916594,0.1812262967343319,-0.0223450047546927,0.5541553033606875,2.1142963637046948,0.3626148461644403,1.0411298898577657,3,0.375,0
13.737,12.346916841527833,10.158900233146376,11.777158268588668,12.79887331255422,23.452078838617886,44.126374924052186,21.982232843128887,15.638510313825268,1.1786118570875537,0.9921864710136131,1.3121573328231106,1.0416536631280129,2.071351736524055,3.105566361860515,0.21511493917695126,0.8533869686266198,6,0.75,1
13.797,8.262329732788379,8.833868431016272,12.359082743226805,14.645107976216742,22.197860236151904,36.12760611157204,30.83779332794893,10.317568002248308,-0.6239318734806025,0.49785683785737006,1.5289767577304918,1.5605929781140349,1.8071743722071199,1.8810794918905123,1.4970862406679426,-0.3575329725328345,5,0.625,1
13.857,6.270187318016433,7.407396030882448,12.721708948182648,17.48907216548616,20.22493263745175,25.817766781999616,32.65462129798468,9.692883882334401,-1.2810163480095504,0.006742012020561221,1.6536062478344669,2.443221052755687,1.3729963649535684,0.5730569512502682,1.8293099059344131,-0.44966864324740713,4,0.5,1
13.917,6.190215639280767,6.259791294256122,11.748997558326135,14.55461530328331,15.036647322010364,18.86802525268188,25.094248011114892,10.884133079045395,-1.3406330531305997,-0.43160203275407033,1.2921343596547108,1.2653677480012808,-0.10067133322677772,-0.5782110939320741,0.669076577543576,-0.14851126912285692,2,0.25,0
13.977,4.82671297451134,5.347957387677618,10.086744352031431,7.701198333164828,7.1982589373306975,11.10803748300083,18.556428007431023,9.243140293469969,-1.9228663749898551,-0.7420818405506874,0.7438907159216774,-0.6121683678735601,-1.5911115327662377,-1.5292183117928475,-0.21792471521251086,-0.5361775871124348,0,0.0,0
14.036999999999999,7.599003218340914,6.182139437939135,9.809288376802732,9.108230309552374,12.156436187899288,23.754759734643677,24.360624517899844,11.40908508292448,-0.9971782700821886,-0.4600011466724585,0.653571345885603,-0.20542430722784774,-0.6701991786655911,-0.11726403529816247,0.5079520237609445,-0.12943912117390494,0,0.0,0
14.097,10.961319236102538,7.246440451273136,9.196634657674704,11.32904197268103,17.089424084257832,34.61450660937607,27.87580953793779,14.685860682771626,0.6336277601010222,-0.06357043064008976,0.42370808172114444,0.5740786166780835,0.6525597733649612,1.7374495988301593,1.0959597436157031,0.6976239947229438,1,0.125,0
14.157,9.40549682142231,5.8970489497479806,6.771533559203156,8.75282733175399,14.81281255714793,29.898602807738115,19.22311931423425,11.8129737268967,-0.21615540358359656,-0.7110757982462136,-0.5405289543594014,-0.4303269412173541,0.05275140624397332,0.9317047889043849,-0.4793311713643793,-0.1703211096911478,1,0.125,0
14.217,4.515120254771814,2.6507046248900363,3.410961060501623,3.7890882432436936,8.226105322438947,15.265918403132293,6.660196088230717,4.86079109950635,-2.1947470187825577,-1.84497449115816,-1.647320480577579,-1.799421688439401,-1.3897389483901057,-1.096543911338133,-2.0461640762112663,-1.735739659640398,0,0.0,0
14.277000000000001,2.248704709154494,1.3072500673167222,1.7357088882896006,2.5018980001842688,4.221928804328783,6.657414008661119,3.6242660666737594,1.5633634280166904,-2.9718414295986566,-2.2075769004734362,-2.1467038185183887,-2.086456608234729,-2.175231506172614,-2.122739443745908,-2.385548025458751,-2.2609965367282667,0,0.0,0
14.337,1.5820488302213032,1.1119687673430156,1.0569045839095506,2.379888820737059,3.2691407038378077,4.875916806966691,2.9449513073676,1.5880813283725668,-3.2745611620832804,-2.2905534965468286,-2.3901905290955887,-2.132909552615139,-2.354129339127571,-2.323149678467978,-2.4938554972296654,-2.250464504332423,0,0.0,0
14.397,1.022036488473311,0.7177648444090388,0.7960104233924951,1.5522600283912897,3.7773091607969764,4.31415132484823,2.3456628553411645,1.2762095289908555,-3.485244339808999,-2.427964843838881,-2.4607628930776295,-2.415826426795896,-2.2453035266370933,-2.4173004022872693,-2.574535095857515,-2.326961594932971,0,0.0,0
14.457,1.1767831701572604,0.645145641250956,1.0263333510810542,0.7931574444262152,3.628230280995595,2.628008016361163,2.85635545118676,0.9775886328353792,-3.4211206007462214,-2.448753226372994,-2.3766104524011404,-2.6153156939913615,-2.2824358406123597,-2.6722148815520366,-2.5033374055290194,-2.3859725320490166,0,0.0,0
14.517,1.1247815453456993,0.7352230579694317,1.221682781609127,1.4355759514374584,3.654431212520552,1.4917886587602978,3.0964778910358177,1.099050645074617,-3.452779882487311,-2.414935436895227,-2.3081328206309037,-2.4590454921821574,-2.282337125521795,-2.797314772820121,-2.4635478661348893,-2.3596484400669904,0,0.0,0
14.577,0.6541572976789461,0.7263978678418489,1.2604053122036152,1.9238103273537728,4.2368786431251015,1.703842957369855,2.3451884545121535,1.2632347862112847,-3.6540814443107905,-2.417955144980675,-2.2974789748099536,-2.2705897420404386,-2.1475082197180577,-2.7666354715107744,-2.5910880321174026,-2.321809464087375,0,0.0,0
14.637,0.5700774938933915,0.6854001322163654,0.9008436260600002,1.5442666068312156,3.5933329850146007,1.7206497136655905,1.1790901836194068,1.1528191319768248,-3.679464751432606,-2.4325571663424985,-2.45136150421093,-2.40329230100076,-2.3037509750643674,-2.762824441260669,-2.766007702780223,-2.350396905005683,0,0.0,0
14.697,0.8846264182115191,0.7111535303822101,0.3665106302825395,0.9788538959592191,2.6492386933420664,2.0362030070614097,0.47209837286650713,0.7958875127284953,-3.5450593028738875,-2.424014209886414,-2.6076182618443853,-2.54840900530301,-2.4887497030663828,-2.725214519198571,-2.8469090812562645,-2.4320958449749157,0,0.0,0
14.757,0.925452926796608,0.8255337438976746,0.3195281435780457,0.9941087486950823,2.6164582220415262,3.2462453006471073,0.369321590589986,0.6526025689197275,-3.52309902838983,-2.383584052560643,-2.6184822701249377,-2.5436743984921746,-2.4954225044674954,-2.565631460169816,-2.861295882464301,-2.4602695971128683,0,0.0,0
14.817,0.723480255469847,0.889258207286209,0.500123732556474,1.0121105735879046,2.3468943286060013,3.7200279135368013,0.314189066251475,0.6986818005724152,-3.6070310268109815,-2.358464384077326,-2.5611174480105396,-2.5391551868555804,-2.56754907766388,-2.488860784811844,-2.868926950662441,-2.4492641998974896,0,0.0,0
14.876999999999999,0.7478908344384532,0.9221179960157355,0.7904144584454746,0.796975110528617,1.4927175988091237,2.78152083180207,0.37784810813361036,0.6747032985298901,-3.596273486584922,-2.3468738123160975,-2.4619945477502774,-2.617362686966361,-2.7831521986629464,-2.6384617647690853,-2.8601710877908246,-2.45481303103067,0,0.0,0
14.937000000000001,0.7957084253298765,0.8846813484957095,0.930574740613772,0.41451483202815276,1.0024921048315258,1.4640189757605488,0.4491224278987148,0.6192489110008492,-3.5741269377782015,-2.3637623841673716,-2.406691231362908,-2.7301484532385385,-2.863275461763022,-2.806886441524975,-2.8491676447278906,-2.4674960368224004,0,0.0,0
14.997,0.7338058226883668,0.6126956474207582,0.8161070910977082,0.4650382006048833,1.9671919295020464,1.000560959304118,0.6543085626427293,0.6802199372466601,-3.5999554790832318,-2.478110123040794,-2.448579004496279,-2.719809883954887,-2.6697519580651643,-2.8632789326226575,-2.822730610632856,-2.4546837541708033,0,0.0,0
15.057,0.7433621680657603,0.3761376640023279,0.9165297556300425,1.0350944613523358,3.1795834856418903,1.2103980090640427,0.8472597988090366,0.8671343227121173,-3.5961842622789995,-2.548789522733171,-2.4208674167293673,-2.556454359338875,-2.3896281930205014,-2.837180614881295,-2.791393118693579,-2.4125933628379093,0,0.0,0
15.117,0.6625471133752081,0.5901846109097147,1.1240623080911207,1.423293597947478,4.026283632055223,1.7669989362897494,0.8736256730487595,0.9577501724933869,-3.6337443321606737,-2.4777152094208774,-2.343363414390842,-2.4151968138771998,-2.186923262510746,-2.760409416440501,-2.7869031718706925,-2.3910734455887925,0,0.0,0
15.177,0.5389638315131879,0.6717819822894935,0.9659924832741268,1.3501830791797977,3.761518142891503,1.8372036462113075,0.7160290851759618,0.7592067941045908,-3.681151261223789,-2.439701481200578,-2.403603394430945,-2.439113401193249,-2.2598501237825235,-2.7503630419918075,-2.8132401174444026,-2.4456086746440553,0,0.0,0
15.237,0.5418621921870942,0.505728796817648,0.6685786432796327,0.9626681627438307,2.4416789762000652,1.3147937615028882,0.5498521042790037,0.4197929352504889,-3.6799732332506525,-2.5040741527015276,-2.4978164379940853,-2.5637465444637613,-2.576412722073784,-2.8264196147517744,-2.8360561729567597,-2.5165786333582325,0,0.0,0
15.297,0.575474550964129,0.3786907118084658,0.6093656154638827,0.8015804281251447,1.9964456864327587,1.7163458044332094,0.9842552121721173,0.5183466576144934,-3.6660203158478093,-2.5450345533525183,-2.5171206399055355,-2.60804580506507,-2.6552341393885164,-2.7846049545187497,-2.783241749267303,-2.4984059292916556,0,0.0,0
15.357,0.6091935653767254,0.5555387365970311,0.8036116985267602,1.2760696245865988,3.22671058550225,2.82281433038034,1.4266444634909443,0.8848907648399311,-3.651418906652602,-2.4892220834353034,-2.456920768856635,-2.4751138957691414,-2.3865817299281487,-2.6208044334065193,-2.708806135612748,-2.4141021560805753,0,0.0,0
15.417,0.5515411786476989,0.7426581821994629,1.001787807592372,1.5344204927851848,3.3173675986350246,2.767251238659437,1.3454590537875781,0.990872699268581,-3.6784705082301135,-2.4135944139617647,-2.3826598230078293,-2.379367387641621,-2.360183591355703,-2.6296290416207913,-2.721306410235345,-2.3842095398401364,0,0.0,0
15.477,0.4012379081393469,0.6632194649508371,1.0810156962538888,1.5345179224227754,2.1811067554560153,1.6863202139856543,1.2769786966393002,0.7913807082596622,-3.7444346748697352,-2.4491468191441372,-2.354191414393625,-2.3786477726912287,-2.6154193404893618,-2.7795241888495035,-2.7302247632836933,-2.4314187499267974,0,0.0,0
15.536999999999999,0.29740629279837294,0.4132927645830946,1.1232924295699651,1.405669212022483,2.570503694293845,1.1633593433109999,1.4813230849275212,0.6383584069626559,-3.7835113962436737,-2.5380302032148703,-2.3397171962540058,-2.4215517726934945,-2.547659196563944,-2.8398372053342285,-2.6983943304996196,-2.4636182925086527,0,0.0,0
15.597,0.42490958258760003,0.3418363112904439,1.1984913713299319,1.3457825172795295,3.772816142855894,1.378952637916449,1.408160641784361,0.8160760764155045,-3.7383877250403175,-2.558124481779294,-2.3144940607438054,-2.440544789986894,-2.2551737022052194,-2.811872888388034,-2.7098090492489804,-2.427357414264929,0,0.0,0
15.657,0.6167417712242899,0.36828670481888,1.0906364372516226,1.8884522152105896,3.65679360224289,1.6196979380084136,1.0687497517280469,1.06737129308665,-3.652776344625426,-2.5478154243498854,-2.357906374002654,-2.285805123061905,-2.2791277756814057,-2.7763685925753516,-2.763582893972144,-2.366603283262124,0,0.0,0
15.717,0.6352815968418734,0.46246059196936196,0.836555675498945,2.0544990232700977,2.7571381263928143,1.6832889606367574,0.8046334953453186,1.1921241105716112,-3.641951375377006,-2.5189039664818496,-2.4412963261322567,-2.226624789793748,-2.469012439489329,-2.767224191665569,-2.79794359140028,-2.337232729665526,0,0.0,0
15.777000000000001,0.6872931500862411,0.7849747872590038,0.9494038473281264,1.5053914712695207,2.5758659432820035,2.0151940219806264,0.9852640496277498,1.0722744781935336,-3.623222372056921,-2.4104310908294826,-2.405012190365475,-2.4082680853486855,-2.5058349695035154,-2.725974376066367,-2.772879467628366,-2.3676331615146124,0,0.0,0
15.837,0.7201103923406794,1.145331844469091,1.1684017259512862,1.1957784705887968,4.088917728539273,3.44891459723371,1.2541788260122329,0.9366874072706561,-3.6108684880002553,-2.271337289094664,-2.325062411252947,-2.486848721947865,-2.222830027668653,-2.5471604102415326,-2.7321532895818557,-2.395987433940952,0,0.0,0
15.897,0.5118908896678,1.3138053443763322,1.1959993515407015,1.5428609535506255,5.6147396454118015,4.494042222836679,1.3331937541271703,0.9247195228318695,-3.707131437305392,-2.2041017612761915,-2.314971669195328,-2.381819591095705,-1.8482674192881052,-2.38083600265646,-2.7199311376847355,-2.399712150844287,0,0.0,0
15.957,0.5493432775680072,1.2275597523421116,1.1455827829163847,1.9490970964733554,5.659451566847468,3.8557321365336574,1.1927648628106509,0.6911901234950801,-3.694231757714325,-2.237980574091963,-2.3321014444953225,-2.2562090959604277,-1.8280291006392482,-2.485039970335818,-2.7410918533847632,-2.4600442437899743,0,0.0,0
16.017,0.8522153346566507,1.0254631669733052,1.0387124838658965,2.0271054167397127,4.459872711619746,2.3742298541496374,1.0065446214551137,0.4314225213043379,-3.5569010292855996,-2.3114918949244148,-2.3723361545725683,-2.2335543059685183,-2.1178309648481535,-2.681082858693608,-2.767837435631986,-2.510792899092751,0,0.0,0
16.076999999999998,0.9830729848890083,0.9100396360926081,0.7696598256322268,1.5379964576073049,2.7256053240321805,1.5850998539969912,0.8535227956390611,0.4473705351685072,-3.4936448491854732,-2.3510240703005,-2.470534255855289,-2.399857489379617,-2.5252552047964847,-2.785475828843088,-2.790749905010669,-2.506712772025875,0,0.0,0
16.137,0.9403055182093423,0.7814397675043461,0.6889802052153703,1.1828429422928513,3.1437145986354182,1.267570082367768,0.5946001192338525,0.46233761860646594,-3.5122777385451656,-2.401909283504547,-2.4945830762171295,-2.4912811276964173,-2.462830407726368,-2.826665225978197,-2.8360162279119074,-2.5030604509328565,0,0.0,0
16.197,0.995406384685774,0.6994007841835886,1.0852483437010152,1.5663473143750026,5.455315438610727,1.7798404635775882,0.2526151133090855,0.42041740890050316,-3.491014701131519,-2.4291824376549687,-2.366749779847171,-2.3775329276963393,-1.9156138019725548,-2.764240686849621,-2.8829244386131623,-2.5126395781712074,0,0.0,0
16.257,0.9703139418555647,0.7398221511621302,1.2408817617493695,1.5520615261821296,5.781862946008769,2.57154304805329,0.3576776688109049,0.5114420027974903,-3.505508937359537,-2.413630987377838,-2.302329685696805,-2.3836583501849695,-1.8124373808145373,-2.648598681430959,-2.8714451767626468,-2.495229660194718,0,0.0,0
16.317,0.7107990690641461,0.6374660290889376,0.9546985551285392,1.1324591517133267,4.839712074982109,3.25671464051792,0.7274588485483293,0.73279842257488,-3.6165781969620454,-2.4540109447570724,-2.4102478753897945,-2.5075021081811406,-2.0135867458992887,-2.5516763198909334,-2.814808532270371,-2.4446477256982746,0,0.0,0
16.377,0.5240896523447649,0.5022312983502343,0.7862863481411603,1.09916215209153,5.704254500089062,3.933953887407686,1.1005590353450545,0.8095112383040114,-3.6882896172959043,-2.5005217684677095,-2.46042779276106,-2.51313554622368,-1.8345024575403972,-2.457648538491093,-2.7563452174487177,-2.4243230376080294,0,0.0,0
16.437,0.4450035791659808,0.5236450114031825,0.9626793469217395,1.2087066562488638,5.8477761623358,3.5246748491999895,1.1880031566114306,0.6690015859416122,-3.7217306259724965,-2.492560578850376,-2.3993441087301632,-2.477636713120532,-1.8001922031674589,-2.5290512198450616,-2.7418680563201954,-2.458604025660676,0,0.0,0
16.497,0.5079834777877162,0.49119839687761785,0.8380457158871252,1.1448841989889509,4.1668819643571,2.4066885475621365,0.9043584670848124,0.6120300189295219,-3.6997869380110604,-2.5063813264543104,-2.4534950598641214,-2.498293204660858,-2.188129207048639,-2.671821038211528,-2.7878317924197984,-2.4700923579961667,0,0.0,0
16.557,0.7490333626519554,0.4100960560658448,0.4516517566988411,0.989428684744606,2.8803045255306525,2.8195041727629295,0.6050497086490316,0.7380841281326953,-3.600048714024016,-2.5349136155178154,-2.5795787611270478,-2.546772701681838,-2.439473660793012,-2.617862407660646,-2.8270924533466544,-2.441006152803788,0,0.0,0
16.617,0.8045078415605326,0.7279800032498973,0.5916304887773004,1.3148252631563204,2.861703714101008,3.0767328298163217,0.6027960456863499,0.7632801341818837,-3.5720271601486897,-2.4384468180035372,-2.5461704734633046,-2.463773274868085,-2.4423755016234265,-2.576655271811986,-2.826772549587812,-2.4346129198280533,0,0.0,0
16.677,0.6141511448464404,0.906870070089288,1.1780677224537406,1.6623005969283688,2.8567658970639984,2.5836581228726634,0.6332177532608068,0.6885284687509825,-3.656192432427325,-2.3566884265945007,-2.3458835200603723,-2.342463087094514,-2.4438717896861974,-2.6456486034363254,-2.822010923230008,-2.4517896425729853,0,0.0,0
16.737000000000002,0.49201913594293395,0.7202540173598165,1.4171467847148012,1.5891261703315303,3.2563784052172444,2.65520151121431,0.5947247320247525,0.7421713647132965,-3.701576482905574,-2.429879072437336,-2.23967380696101,-2.363566078791442,-2.3644112153734795,-2.634965820646025,-2.8280103607358256,-2.440651560734936,0,0.0,0
16.797,0.5972071188124958,0.5835775965713137,1.1235988023041503,1.275796036418086,3.4626837097826426,2.7201403445656607,0.4690340053603119,0.8299268261958398,-3.659624780867858,-2.470988333744112,-2.355909879602634,-2.467109070195898,-2.3127149829903626,-2.624992114325715,-2.848128883692315,-2.4193650966412075,0,0.0,0
16.857,0.6415357603837772,0.7301593921376516,0.6359549327554026,0.8449760446253033,3.104862450336458,2.3114373925816265,0.5315900231423027,0.8328671879329279,-3.638446542569205,-2.418752193121151,-2.5275984344104687,-2.6033816396084455,-2.3886843834555838,-2.6810764452562403,-2.842226728616072,-2.418606753642663,0,0.0,0
16.917,0.6171827420548222,0.8246443765382395,0.4052150982332901,0.9414234758162434,2.879897246421886,1.785582027055633,1.037600289203334,0.8397583684412462,-3.6483190389855173,-2.3820316795727456,-2.587932350339641,-2.578021016411841,-2.4387441193495847,-2.7628112615296536,-2.772709228976583,-2.4173631684925545,0,0.0,0
16.977,0.6472405711266649,0.7701893751685663,0.4363047789394879,1.2674254310682282,2.6424629130391084,1.0586294867623394,1.3374719463886753,1.043059452707635,-3.6355348692267064,-2.402941876657899,-2.5763126993902707,-2.463151023379672,-2.490345397394442,-2.8639035178380774,-2.719849781441084,-2.3751492514356527,0,0.0,0
17.037,0.6282536053877628,0.7264098048287516,0.43210333318765604,1.220366243034101,2.8259787197953234,1.3281454733217473,1.177568961779226,1.1676070556307163,-3.6441961516796346,-2.418083292512441,-2.577661475287871,-2.476308755349925,-2.4516892465155795,-2.8352642181811256,-2.7455685214821592,-2.3438595023282636,0,0.0,0
17.097,0.6236136879074373,0.7946070623259077,0.44789666577475323,1.1036726521083104,3.332648658793948,2.1252850918821427,0.9136771739155102,1.0051756959452949,-3.6470817967094256,-2.393324925270676,-2.5725180425491745,-2.5097793999827673,-2.3400579624599533,-2.7133247052930964,-2.781347142322725,-2.3820360877277778,0,0.0,0
17.157,0.7453328945364901,0.8532348239917448,0.5769761856206598,1.0380124853725954,4.128379269356214,2.334879096637553,0.7956169878847021,0.8610334806246045,-3.597036140653151,-2.371555209716273,-2.531994035939587,-2.530653507903944,-2.1721545528920347,-2.6769329535007667,-2.799083628182784,-2.4121970949026044,0,0.0,0
17.217,0.8945968107842543,0.8213533159551114,0.6862616784186442,1.0259975566107287,5.5057583371006915,1.9294461963727454,0.664800131663604,0.8947358398831115,-3.533408858365506,-2.3846598531420384,-2.490758819353529,-2.5341245351484933,-1.875287563181697,-2.7383773021773212,-2.817849064560231,-2.404988864602379,0,0.0,0
17.277,1.1647058310276106,0.6299027580510925,0.6032238886577691,0.9610450223467013,5.613543117683027,1.2103118786027385,0.5475754643862253,1.053257605110954,-3.425194265784309,-2.461988964894339,-2.522232813164705,-2.5586287482893337,-1.8492737318577561,-2.8512982423925455,-2.8360672681429513,-2.370331376536089,0,0.0,0
17.337,1.2313779879567044,0.43533480624851095,0.5558531895088796,0.6428192641380931,3.8598730397417396,0.5207580977522743,0.35140454748178357,1.1792258285069805,-3.392659014669567,-2.5252612213353953,-2.537738165353786,-2.6629854309545906,-2.2774623405841212,-2.9328876138448887,-2.869335417981938,-2.3404220842820664,0,0.0,0
17.397,1.0535867787905706,0.6149260715581162,0.8600642080433409,0.3733994279161114,1.9410570209171674,0.4561476653936666,0.4516802428440704,1.0542249141783548,-3.4663148523985794,-2.470004087316798,-2.4431313958089884,-2.733587675626872,-2.6809120262229054,-2.9389319344951876,-2.8614752694846004,-2.371355163076441,0,0.0,0
17.457,1.0096915381259361,0.9470787236822543,1.1553214355669956,0.4274113634142633,2.3339229972432562,0.9874258473657906,1.1274864995437734,0.9506836843275767,-3.4832581350999576,-2.3452252722882156,-2.3327381864096495,-2.7218998488084405,-2.620595764805176,-2.8799302509865967,-2.7667771181825898,-2.3935069094332495,0,0.0,0
17.517,0.9136331924525147,0.980294608088736,1.056612475547597,1.1038763762355197,4.884701478812723,2.2104036707401593,1.621317105414748,1.3489536609333628,-3.5271185276134713,-2.329628123587533,-2.3715458456122978,-2.553514136087954,-2.0692637189019094,-2.718930561096844,-2.679433119581377,-2.310719910555624,0,0.0,0
17.576999999999998,0.9655738738503681,0.7119256381954235,0.7452636701718208,1.830675685230028,6.472190854103748,3.372248444508481,1.5677885271593248,1.4998645064933323,-3.50863067498803,-2.430116859490422,-2.4719554896486255,-2.302952669409302,-1.6486200133876885,-2.539745677129179,-2.687770703973501,-2.2702385203663487,0,0.0,0
17.637,1.0814857524485473,0.452932312657967,0.611385814293549,2.164486070144142,6.84264077280995,4.086920516022121,1.20206486164452,1.1384135544034928,-3.454882426672611,-2.5235045995944385,-2.517304002564592,-2.186625186149928,-1.5639348450630182,-2.4350239023093034,-2.7409600448105524,-2.358474854930589,0,0.0,0
17.697,0.8998528026651397,0.48616309276848246,0.5717909492829443,1.9539979383016213,5.709196618187653,3.661895353049033,0.877826310436899,0.7466119690262455,-3.536163891386273,-2.5189557718127964,-2.529656396848525,-2.2576387969365896,-1.8615126534826167,-2.5045454095173567,-2.7892475104723204,-2.44053570281024,0,0.0,0
17.757,0.6800683702695134,0.9273307772710006,0.5273425051241839,1.4348122454283474,3.6478550240181065,2.6632849973854738,0.6966939092005382,0.6810550574518972,-3.6229297209084415,-2.366506644243764,-2.5474414882668426,-2.4182910917744924,-2.2855245288541677,-2.6332823408392385,-2.813308800703327,-2.4535105462529874,0,0.0,0
17.817,0.5382256115363115,1.0121180679689528,0.40086857193816805,0.9817409127148923,2.819219037917056,2.3244849974919686,0.8051449831710812,0.744988722062536,-3.6860112106911935,-2.322931087833126,-2.5910446438045622,-2.5539211453721316,-2.455450580271659,-2.679292159179949,-2.7978956024393624,-2.438696483165344,0,0.0,0
17.877,0.36970633465361297,0.6364603802869142,0.4294430272120693,0.8412764538880251,2.2045568181526067,1.915036769248279,0.8526074596046538,0.6901654331261206,-3.7564384562507738,-2.473818687878327,-2.5818389405598023,-2.591395708617057,-2.595032654115,-2.738395084764028,-2.790222555183133,-2.4525447181136486,0,0.0,0
17.937,0.2720866247013696,0.359105219539118,0.5275511797979825,0.8757166064217344,2.042601345749276,1.7414527508375783,0.749053255002905,0.5002863459763173,-3.7951472831661213,-2.554050111917095,-2.5453657853599476,-2.5819351820679217,-2.6276874003055055,-2.7603041180781016,-2.8056712500825363,-2.498440212340346,0,0.0,0
17.997,0.43756012263007493,0.4691787670829102,0.5830335227252248,0.6479392944364281,3.0238572234068726,2.0700297054386185,0.8568555939595972,0.34415610095144467,-3.739685684630354,-2.5152143052464027,-2.526289052395963,-2.6665487283773697,-2.4270826082087544,-2.715493765523775,-2.792285227481701,-2.5305542993358685,0,0.0,0
18.057,0.7547957590592064,0.6358384110504807,0.609168934063664,0.40059147731587097,3.1573216810305884,2.037129453633221,1.298475852057504,0.47284785328162005,-3.6013191801147966,-2.4534625082756256,-2.5173597171719413,-2.7269289497662013,-2.3957252517227796,-2.7201952497031225,-2.7299713557075447,-2.5058787282308628,0,0.0,0
18.117,0.9908602562932284,0.9248702325736835,0.6094688585155558,0.6074460929492065,2.095731640977029,1.9767498361499618,1.5689429305502982,0.6381294659703624,-3.492542270284908,-2.3543524562114997,-2.5177973057021865,-2.6690937485817625,-2.638276005886364,-2.727973383304887,-2.6858658895712053,-2.4642980317019343,0,0.0,0
18.177,1.0915950126703127,1.1082325110306888,0.727009046142833,1.0104989187716906,2.057116494096577,2.3000315018807354,1.4238995140955328,0.6620887542933525,-3.4482582964842283,-2.2807759064460726,-2.479584152924763,-2.5492497758061092,-2.6374849574022874,-2.6822046257643506,-2.7084538341803435,-2.4576770859037262,0,0.0,0
18.237000000000002,0.9643884212703616,0.8963023011283384,0.750056898890484,1.0960966649834165,2.3926457150650573,2.314491972067744,1.1660739500959503,0.646305073451534,-3.5088360901577893,-2.3740031894090747,-2.469799954242291,-2.5173579733867038,-2.5503202827899054,-2.6814690209111394,-2.7443916150124923,-2.461132911163753,0,0.0,0
18.297,0.7198744685336356,0.5837432884007326,0.6115030526857831,0.7726671230644494,1.8363616031721213,1.7117314955396332,1.0415249733151861,0.6072772874450715,-3.6075417351449612,-2.47372008358674,-2.517452557249896,-2.6216067705250095,-2.685060987340021,-2.780618758975715,-2.762638829007799,-2.4704645336830073,0,0.0,0
18.357,0.673938078573935,0.7216191455310955,0.45638564288305306,0.5553425031896639,1.316566888054776,0.9613143019390624,0.8953047066112343,0.5229101986853156,-3.6249593037284327,-2.425549762880162,-2.5744338653540404,-2.6774432509982424,-2.783472985512688,-2.8705877442392853,-2.784579658330055,-2.4893797565502926,0,0.0,0
18.417,0.899805116061788,0.7841383716261604,0.3724624926755297,0.6334681054615099,1.9615506449659699,1.132537853132585,0.6856137967503309,0.5113601889093289,-3.537813520167992,-2.3985964482678104,-2.5998251978743334,-2.6541973698055874,-2.6612016053991794,-2.8478557428175866,-2.8167378862325037,-2.491890451262757,0,0.0,0
18.477,0.9944456280267296,0.6164715828580416,0.48761278278872827,0.7374944992354378,2.8747832989031306,1.2831382209607314,0.5829726216150325,0.5577187901893172,-3.492833906552169,-2.4626361234193466,-2.561483936070901,-2.623101648937785,-2.4484941717079334,-2.8233299393992097,-2.8298351023106503,-2.4814081057650585,0,0.0,0
18.537,0.7559570700286521,0.5904319839106238,0.5942373154169501,1.132086407793952,3.3315088257609218,1.2325161641842122,0.7371394932757455,0.7723294031428258,-3.60268136979988,-2.470870941076504,-2.522316598986734,-2.516774576289016,-2.3378176258060814,-2.83079550393898,-2.808230853351397,-2.4382605849281167,0,0.0,0
18.597,0.5947708500725624,0.8081273836409861,0.6049846017587018,1.6167538532191754,4.295299667360866,1.806378118722892,0.9162279427892299,1.077600276718225,-3.66046947808452,-2.392570717749493,-2.5185778701738433,-2.359342226076096,-2.151978594464161,-2.76190361132755,-2.781283477353419,-2.3666164879606693,0,0.0,0
18.657,0.7558569401072778,0.9002046299511014,0.7609823156642535,1.9710881395486217,6.224416735220787,2.4854989830770426,0.9659052199784949,1.037645956170491,-3.5939048465563705,-2.3551237173345325,-2.471600350933462,-2.2478357033903706,-1.7311164160972183,-2.658524860996819,-2.7734225675235997,-2.377094636487925,0,0.0,0
18.717,0.8159088659339397,0.7837333963137355,1.0865729809029552,1.8782255159628614,6.032388740292388,2.3927216187405826,0.80561276519338,0.7247068165303849,-3.5645639884303413,-2.399679242129085,-2.3583170550924915,-2.2818226505245947,-1.7883715618405953,-2.6729432148541967,-2.7997423470246487,-2.4461463962515553,0,0.0,0
18.777,0.7421009028638472,0.7222873883607269,1.3948989894607347,1.2312913897497293,3.413075554641091,1.7438073431885766,0.5464767359268723,0.5658275571024567,-3.5961377152029512,-2.420120517581687,-2.249348839818134,-2.5075110714792337,-2.415113221924626,-2.763918542145806,-2.837295508299088,-2.479936699188967,0,0.0,0
18.836,0.5747381001961663,0.6923680009278004,1.4461741387370923,0.5020746098555571,1.2325896380128971,1.240581968705976,0.3888632442227618,0.4417148932657567,-3.6784306934057813,-2.44121174072612,-2.229277263582812,-2.7215919154307717,-2.837589630750275,-2.831310759500172,-2.861486169602724,-2.5105081933513693,0,0.0,0
