t_center,rms_emg1,rms_emg2,rms_emg3,rms_emg4,rms_emg5,rms_emg6,rms_emg7,rms_emg8,mean_z_emg1,mean_z_emg2,mean_z_emg3,mean_z_emg4,mean_z_emg5,mean_z_emg6,mean_z_emg7,mean_z_emg8,channel_count,frac_active,global_active
0.1465,0.8187973642307813,0.6338789520405191,0.4559668088460251,0.9826278231743301,0.37587812916534835,0.638878694811425,0.9027972077473304,1.097106569180193,-0.5676917010605501,-0.8010544925587972,-1.1542553495358168,-0.14077321348930125,-0.8092681032635127,-0.8227451736728336,-0.6223433326445257,-0.43998826260615487,0,0.0,0
0.2465,1.1697223853669334,0.5245058338865697,0.6726132264357957,0.7164837894519523,0.43350084255548216,0.8594366467162223,0.9869845766883649,1.3973740860569335,0.07870597073447502,-1.0722522528534133,-0.7865104028274706,-0.7169514147296246,-0.7135055082112863,-0.4639210498685829,-0.5083923785498972,0.652324532317362,0,0.0,0
0.34650000000000003,1.0910845792383268,0.5309684671143743,0.967982002093237,0.8549502077678769,0.44057230203902786,0.8148033976154018,1.1837075075972674,1.260011096250599,-0.12361405890764228,-1.0417286746528098,-0.1340865005768591,-0.45006243128746826,-0.7016701728677066,-0.5647741517595117,-0.21948296274381188,0.24566404338379744,0,0.0,0
0.4465,0.9030764794740282,0.5747827009250868,0.8540187251569779,0.9425826919372804,0.3107634684027669,0.5022685040350829,1.1777210580750375,1.1348709408123776,-0.42029658336788783,-0.9090704350887454,-0.4443062173485,-0.21210789134194852,-0.9433398054627966,-1.0604424198739801,-0.2379978237893236,-0.10822098109117595,0,0.0,0
0.5465,0.9100904579813117,0.500081922729554,0.498042154512511,0.6455252980561487,0.32250572269129607,0.6470705562019196,0.8404154616406742,0.8389199170782208,-0.43013806733883475,-1.1101172866015772,-1.0865499970178367,-0.9549915711068071,-0.9237633368811167,-0.8589713370887339,-0.7826964301291713,-1.2803085434935144,0,0.0,0
0.6465000000000001,0.6379815478044277,0.38533251323842893,0.5350094140177016,0.4212783101217704,0.3528823026258416,0.7458510082587667,0.5428940497795723,0.4715873660005852,-0.930011710781455,-1.4237610092320947,-1.0118493000741635,-1.3955941009300736,-0.8770161326609667,-0.6507162471128914,-1.135676645855332,-2.0223464611205815,0,0.0,0
0.7464999999999999,0.495635682162476,0.6774584720831998,0.9053012898032032,0.6820085616663238,0.5308106535555551,0.8190962047131399,0.7858190086399996,0.6162040000984762,-1.1539258967753871,-0.9280007304492629,-0.33399670565397593,-0.8583901421547141,-0.5802972292705592,-0.5322485551063809,-0.8284256760285157,-1.527447799007206,0,0.0,0
0.8465,0.4632546729241139,1.0873889397620327,1.106189146404022,0.8509721880308863,0.6050262653275106,0.7957157940194256,1.2455686277544182,0.9397011309811926,-1.2111984417250947,0.28819290573157835,0.14017058054528023,-0.3815482730231819,-0.37114582736785706,-0.5901092766993704,-0.17734769589837607,-0.7244010727349165,0,0.0,0
0.9465,0.4518224072015837,1.131677173535444,0.8600653674110266,0.7257527055253604,0.5217895717825285,0.4800496148773113,1.3178273733418795,1.0763619310751236,-1.2403442124613528,0.5127208204932477,-0.43824920356835917,-0.703178898912016,-0.5220561345005926,-1.1462884367051913,-0.04317732607702097,-0.24815539296385405,0,0.0,0
1.0465,0.5119282037762862,0.960757517599519,0.5972870699877425,0.47940376720335887,0.4595882452595835,0.6468260511190845,1.195415989938088,0.8257090833364386,-1.161587325852171,0.07979877124082077,-0.8707728906044585,-1.2625944107530396,-0.6464339400736346,-0.971400286169736,-0.20228456911023823,-0.9857729579809359,0,0.0,0
1.1465,0.6146698656589078,0.8464071367147651,0.5726943406774709,0.5311801257146413,0.4090533169499785,0.8995822515441414,1.0011672922232608,0.6506975848465847,-0.9643852221711496,-0.20955917908111427,-0.9257819235453075,-1.161668903206999,-0.7407282423212496,-0.43853785410320306,-0.6081269932296595,-1.4267549342310273,0,0.0,0
1.2465000000000002,0.584789926095018,0.7417042327173013,0.4742393250205209,0.7803112028402641,0.6266363711978231,0.7820053521710295,0.6816972011938803,0.8187928900505472,-1.0000531395061734,-0.47456990561420426,-1.120131490334805,-0.5707946168550576,-0.3876389758483736,-0.6165967736827644,-1.0672574622756856,-1.0006629055803808,0,0.0,0
1.3465,0.5776085489580257,0.6353406242704029,0.42971140934117463,1.0844813185962465,0.8596842282488177,0.5446740845982556,1.595440614854644,1.1786994867572418,-0.9979767599105988,-0.7595769454191129,-1.2222437120782204,0.10261157655256938,0.09204041414552869,-0.9782414630672982,0.04667281783019383,0.012912213338056693,0,0.0,0
1.4465,0.5894261196915792,0.5067305019516235,0.695267020691639,1.0034133611736045,0.6911408198762591,0.8160642849499306,1.890596322886259,1.1904833498719523,-0.9744331450906502,-1.0924369658586337,-0.7697971443164849,-0.15100892043243108,-0.36456345103921506,-0.6006552018739361,0.721995317720755,0.04149465673354229,0,0.0,0
1.5465,1.1287519521010023,0.5409558996225112,0.8819787178179814,0.580831031404188,0.43962857423592316,1.2536827084943847,1.4691723347154488,0.9826917338636981,-0.20949394361114618,-1.03454730540524,-0.2847555626638429,-1.0232013706731824,-0.7405229024354183,0.20178072179221726,0.11477271611957135,-0.5472479144303866,0,0.0,0
1.6465,1.8560711439798447,1.0829367189818428,1.5007936103194492,1.3651850584711869,1.1102877554287125,1.8789016927447477,2.1593129296567612,1.139942075307737,1.3303181468034566,0.18496703996375513,0.7360794548629964,0.2276680658414223,0.3416136047745021,1.2140368143945937,0.9406222808212915,-0.0885493999087457,0,0.0,0
1.7465000000000002,1.9194180543110726,1.4196862605099851,2.1059956026390876,2.4965452101781773,2.4766137028860316,2.311396604202558,2.631207850863504,1.2055884953768154,1.5387392698001598,1.275828192752862,2.170484566633691,3.0677450314446526,2.8252056637646557,2.0228869434055383,1.81095530978918,0.1617948982888969,3,0.375,0
1.8465,1.5900060080322254,1.335038294035965,1.9495739120600297,2.4436192117472397,2.8000107825963134,1.9240088495787335,2.0393039913652684,1.156983716751063,0.9349121362112622,1.0255759940030054,1.8411321758231367,2.9039452282233302,3.648205581334392,1.234457731803018,0.8220574424016946,0.027331797402614443,3,0.375,0
1.9465,2.170874607663599,1.9360559014181398,1.9043751161578308,1.5267390960835459,2.3426862809874387,1.9906515922331933,1.055403982128347,1.1895873898976383,1.888585999093345,2.331016379460027,1.754114396924634,0.94028684775886,2.868318686966436,1.297011255848571,-0.6438620994220523,0.12083989209699242,4,0.5,1
2.0465,2.141306265192242,1.9334215951184386,1.8780503730780658,1.574572952409707,2.1862214955137564,2.2401745958934023,0.8856309119491501,1.0870451806817205,1.7683041659798793,2.3227991202498597,1.6999207010749606,1.1609944542159618,2.61898767853171,1.845829574864134,-0.822621248662883,-0.19625834934483286,4,0.5,1
2.1465,1.3088777981207909,1.083455523229782,1.5120723278643984,1.7963667541376793,2.144474617515407,1.6391669449700483,2.851119329387289,0.9352632136397591,0.3491511174374001,0.3581221979130346,1.0149385081489046,1.7588288130923135,2.5526401544281097,0.8022172894585696,1.5580067540023999,-0.6187589323804094,2,0.25,0
2.2465,1.508375526632819,1.0693920744946317,1.4598224531978248,1.6746069916052968,1.9792620503163234,1.4838336742691927,3.851885293722706,1.142197200854793,0.7125360696073182,0.34317722505419307,0.9026405746404446,1.4739064070660965,2.2109766601214385,0.5542326187657934,3.50257103028798,-0.24690754741056115,2,0.25,0
2.3465,1.5632721867740036,0.9980852636659641,1.2002556400721613,1.2810193521584192,1.5379613671794687,1.8014703461006563,3.3416510178915564,2.181283921082931,0.8110056247078794,0.08159588711928618,0.3094245498469843,0.48616346900630864,1.3969923337438266,1.1131514741320552,2.727281740067343,2.3979046496223884,2,0.25,0
2.4465,1.2876678101442545,1.2567083354777306,1.27227668893404,1.2149906189220854,1.753823677787461,2.1365668551656385,2.7901497067098147,2.285178002372373,0.3286618436067424,0.5921347258997389,0.3959877728800126,0.3411910440402405,1.73090895140313,1.6434824263847936,1.8753182028179898,2.987312689444802,2,0.25,0
2.5465,1.3771828122016754,1.6893696567026781,1.9730025514847318,1.8413002132219722,2.618712093671476,4.017155635256365,4.740254046124663,2.484181768118521,0.5251660604905595,1.9343846838725316,1.8167254291258073,1.7487906046108839,3.327607013297465,4.4331097958806005,4.252084258483419,3.4511283003705415,5,0.625,1
2.6465,1.9599479090752558,1.7094671591534027,1.8428683625267541,1.8454799428944657,2.498680396349687,6.088618766114018,5.841742540305125,3.831783691192674,1.4646961923547825,2.024244686724325,1.4721824992624821,1.7809021387034096,3.0328487037549148,8.361492851513766,6.348170117435953,7.450418154835992,6,0.75,1
2.7465,2.4236512246573505,1.838502575093962,1.5143794275796438,1.8014125909664633,2.1274673673607194,6.002738630461258,4.767491624874305,4.153226910285774,2.3888825786905543,2.352355666725945,0.9066248181833616,1.675393104906263,2.4622696936612756,8.033525534113695,4.714687355801163,8.442691609791519,6,0.75,1
2.8465,2.2504125664735213,1.7603690815555648,1.7565293090459078,2.0529937579414868,2.606165129490902,4.390700570678463,4.347618212095581,3.496002506888309,2.120951178089012,2.099360863757634,1.4517906974869381,2.28104550262534,3.4409354517864004,5.328064971725541,4.191882970022187,6.559835382756217,7,0.875,1
2.9465,2.096484794301782,1.4161713268412757,1.7574054208330538,1.9348949432943008,3.3926790663657704,5.661774432194889,6.058490722302586,3.081766018831262,1.8917929781413283,1.2137427611349063,1.4574858939701196,2.0274572995503237,4.73711048874537,7.132297295396382,6.514473905693453,5.533099828012362,6,0.75,1
3.0465,2.258889535809464,1.6866008036227045,2.1766739107180237,1.9560436829263277,5.018663410068428,9.643490677194352,6.62683662811188,2.9458475009819383,2.1715102589871456,1.8679677664491185,2.283696914884876,2.0668481517656496,7.687435856884954,13.879520784146035,7.454577947233389,5.130427014835797,7,0.875,1
3.1465,2.513641302375585,2.301346168634539,2.488095155101283,2.354713623564156,5.201337561849253,9.817997654624653,6.173434509253504,3.3479272622151255,2.5501279592052533,3.4490699906083866,2.994941267124702,2.836533551350444,8.200719177285734,14.443979078519412,6.852114645272821,6.073846314561166,8,1.0,1
3.2465,3.4318363244393315,3.103413143093286,3.481963638715484,3.4439332117386963,5.05380114672187,7.142028211014024,6.006648634414765,4.469073039319187,4.233642648430731,5.478458853263562,4.690191947862771,5.157824311852527,7.989544606231626,10.253267594352026,6.593877671873767,9.23250903062762,8,1.0,1
3.3465,3.93284655484462,3.644145816855433,4.658820158212408,4.249832367254189,5.71704518102427,6.916522587814992,6.626026485612514,5.234442427079189,5.277443074914918,6.839096667024506,7.097840428776226,7.14000878378282,9.17726895343671,9.828034663150607,7.363788135351331,11.4766740425638,8,1.0,1
3.4465,2.753623216624186,2.756222238282179,3.665878273590063,3.2165222037186494,4.202343133870919,5.343577713521856,5.4999673123502255,3.9534850949705067,1.9930655734756217,3.654003484132568,4.106538306885065,3.7082403029753186,4.948981032913451,6.13221473562852,4.935227068240736,6.1127682792837765,8,1.0,1
3.5465,0.5302868380145624,0.8979936930276392,1.0397896516264375,0.8708206073370843,1.007118997104659,1.8989909162203602,1.991900334352466,1.0507411319522484,-1.2251447694873205,-0.14343692477735293,-0.04640365895312766,-0.8201616079298567,0.05746919799454451,0.8799829282331025,0.5461027150089759,-0.8472452774194058,0,0.0,0
3.6465,0.4832170457875305,0.6400882099176796,0.8932066720937542,0.5797141877131787,0.5835484106854895,0.8633913466873785,0.8627839645931851,0.5256275738333537,-1.2177011787425875,-0.7732775553448846,-0.30798815317071443,-1.1387745228072594,-0.43170098401013246,-0.43195343072209785,-0.7532492561167937,-1.835481977359653,0,0.0,0
3.7465,0.4802379560379247,0.7414916941394927,1.2519729017551176,0.688581487088005,0.8497883767304522,0.8941562535198071,0.6716684528337286,0.938456542554626,-1.236501414038422,-0.5238145991956966,0.41080086348420136,-0.7619709705249755,0.06460516416577221,-0.37745302395421226,-0.9593629021652522,-0.7547885054469472,0,0.0,0
3.8465,0.452111227574545,0.8150659050403767,1.3667251575398895,0.8350155861723622,0.9878219882698012,0.8585427046624495,0.7502277382282414,0.9956977829552924,-1.3031894333703133,-0.29173444857065894,0.7108611367845491,-0.48243298198176665,0.36342359278792374,-0.4467679603032154,-0.8359618855520057,-0.5346609378797801,0,0.0,0
3.9465000000000003,0.6685199120837896,0.730795755753632,1.0626724687615654,0.9124926225843277,1.1677552058080083,0.9414794293410722,0.9872704825800195,0.6229712212822299,-0.8601659971512506,-0.5090587295758516,0.04153845572917692,-0.29930229075506776,0.6800254047380687,-0.33034629950859473,-0.5451805343603638,-1.6098987254529644,0,0.0,0
4.0465,0.6267926131145733,0.7285305376383285,0.7431297910648793,0.6459327154890305,1.1340643350657906,0.92217878287536,1.0270798197087811,0.39557963559209075,-0.9430924425174887,-0.5093352262320346,-0.5796493029892535,-0.9376759899958887,0.5867456845654112,-0.3770916623739175,-0.5075022190970305,-2.1559845256092918,0,0.0,0
4.1465,0.5145520098089065,0.8628697531598459,0.5358891698885302,0.3920656202130159,0.6996701370231273,0.7317068314119313,0.62315011093336,0.4321863471547561,-1.1376957342882474,-0.1766709937816382,-1.0342425863607239,-1.4356864922681565,-0.28708492566943244,-0.6587575124922103,-1.1243848524135727,-2.0603598725664556,0,0.0,0
4.2465,0.7351929875902261,1.038185869299294,0.5856180206831758,0.5271572376499983,0.5507959883338223,0.7103932770617369,0.7721111009866535,0.5195193819434515,-0.7362392439484832,0.29138821088459776,-0.9548790600471387,-1.1863603027846812,-0.5124129255967116,-0.696073948979067,-1.0391075272085561,-1.8768898575144703,0,0.0,0
4.3465,0.8874719368159456,1.182562722653838,0.6581839819509793,0.5386248554940798,0.8770695492941964,1.189376856823603,2.4653134470676465,1.4937593018603108,-0.41421463492260885,0.6661596348877831,-0.7739232902582888,-1.1573986123355613,0.09685999161041824,-0.052701763395711886,1.072515929121063,0.294667395364642,0,0.0,0
4.4465,1.2830659367686925,1.3637381630160068,0.7786185789285717,0.8988329206557769,1.3170180381053518,1.4613021104980601,2.8358115829489576,1.7482209740797854,0.22798902543832814,1.1293894040962675,-0.6560191453003112,-0.685402703000909,0.8595977147416236,0.5598778976614515,2.0117092789423876,1.4458757384692729,2,0.25,0
4.5465,1.736707026396171,1.4272611861959141,1.3635969078509986,1.9500675003512298,2.154686637311814,1.527093617171324,2.581839825731208,1.1722940379608193,1.1470595931032417,1.2856973776053493,0.5021703479394067,1.70895937976972,2.343379634012892,0.6910163397040612,1.6839970800915447,-0.24765265846092496,2,0.25,0
4.6465,1.4867098295894052,1.3388284123400052,1.7077727631959283,2.0346638457811967,2.1737550107051615,1.966028631546396,2.8161334351431297,1.4243422554675906,0.5513536966570207,1.0540213289768996,1.4043454901111332,2.1225703918898073,2.475881451470841,1.4170655540342612,2.007042945642236,0.4712381794861802,3,0.375,0
4.7465,1.2001149258955097,1.3987059856898632,1.80723973881741,1.503795263481663,1.4346560337327239,2.1764062580290457,2.6089071878054226,1.936524649272547,0.07526883569241083,1.191361909775303,1.587467933100754,0.9817465745684589,1.1478468216591282,1.7487546449921012,1.7291131669207944,2.199293889603116,1,0.125,0
4.8465,1.3907614510949369,1.540675616420623,1.8898570866076334,1.59447241471612,1.582091813219201,2.7755133340088474,2.4787702310300928,2.030211013948119,0.44315495576629105,1.5315571760430706,1.6961501904870457,1.0868225336775192,1.369746861006857,2.622874128364271,1.5977975228449681,2.4042321022731645,3,0.375,0
4.9465,1.283117074753107,1.2141249197611519,1.4148266830466576,1.227334711647395,1.472431628216472,2.5161964049686043,2.9268380007974137,1.6497699834470705,0.2603930996700846,0.47164172685637423,0.41730387231708,0.040074835249392204,1.1113796620145786,1.994838424382015,2.205334504435922,1.2195981873748853,3,0.375,0
5.0465,2.13952122480901,1.5003834838994785,1.2677526530020593,1.500113984744225,2.313571036881116,3.2117855350645605,3.955455543466764,1.4061375503492013,1.6415162690109455,0.9999061673619472,0.2236518600719498,0.534180643869867,2.222082091333361,2.488861660380364,3.6341435115390044,0.6715881993829226,4,0.5,1
5.1465,2.576247985944999,1.9862386009337023,1.6574170163230102,2.2337483443513717,4.240012988800278,8.398714349183818,4.7243866893052155,2.208182191304479,2.744858696041888,2.6407372213343483,1.2482422368448285,2.6244103427930416,6.132940753442171,10.71169877807057,4.717343540611213,2.7898252806504273,7,0.875,1
5.2465,2.060333454903269,1.604501291970943,1.407359374932696,1.8526511534774712,3.8940448056172956,8.534336306270253,4.329605631892581,2.4629857878911765,1.7600421998981002,1.582281057021031,0.7250008155601735,1.5476765258699337,5.215907460001457,11.456702642587604,3.98713256428926,3.7140286608716746,5,0.625,1
5.3465,2.154980078482597,1.63780217416732,1.580879376910963,2.0624611422699233,3.2625042804568527,6.783171084965795,7.328552126161903,2.9847081402746594,1.8975343281040267,1.6487538809981694,0.9790189956004484,1.7200347135588125,4.10664744974376,8.816375678705946,7.288690717344841,4.861133160326119,6,0.75,1
5.4465,2.5022194812778613,1.9791589835245962,2.030742427277831,2.859544372616927,4.232502510554639,8.237704395913491,9.180524769005357,3.4899431842065214,2.545770892964524,2.5703036181003927,1.9052258583156032,3.6952534467292555,6.021329783520194,11.428984377679518,10.608240292792011,6.2398704393524405,8,1.0,1
5.5465,1.8737478522565225,1.5321009390705176,1.6252379928639626,2.182321782131299,3.242822438216981,6.040497868147545,6.226669581547693,2.504021832918616,1.0682670205893223,1.2434109496707353,0.8772215197330301,1.6936055595165027,3.7629276112075116,6.714608193429934,5.002137807997127,2.7320646734667093,5,0.625,1
5.6465,0.8277023337275647,0.7227977989636389,0.8844232772388828,0.7990326054688256,1.1759034987238979,1.8370547045036902,1.338747157328235,0.8096657565260369,-0.5382532061229625,-0.7104423649007885,-0.2866783515762967,-0.5215945268088474,0.5360274433614456,0.8738500430710675,-0.31392560925229185,-1.1642613649125177,0,0.0,0
5.7465,0.5656283812154701,0.8363119849930828,0.9186553284630445,1.1172730908075106,0.6704505820156741,0.8636706368473602,0.7593261938888843,0.5034911850803957,-1.0784601712972142,-0.5239385352974053,-0.21327556488963276,0.11967713385762789,-0.2572940303983992,-0.47994184699373227,-0.831152284098599,-1.8762566002938228,0,0.0,0
5.8465,0.4807086175238422,1.04165858152064,0.744369957173009,0.9912698646247322,0.8121168169124736,0.7301120853250285,0.8367817734347449,0.7373292104268122,-1.2438002368757217,0.23934057079408155,-0.638607879225717,-0.38535618133348726,0.001422399650234224,-0.6822903662375118,-0.7236532340981954,-1.2651672387429866,0,0.0,0
5.9465,0.712721703476815,0.7741504079027377,0.514006691764486,0.36201409182296124,0.9282314959178387,0.6713382729284161,0.6247027590056332,0.6588995802512091,-0.8068378183506093,-0.48662892966446697,-1.0431418115668258,-1.5263785470921172,0.20419282283090723,-0.7718599070058775,-1.096080664011327,-1.651153608515878,0,0.0,0
6.0465,0.6573371311816255,0.4583358035950497,0.45394381732328964,0.37998542138044505,0.7261718255603041,0.5607879512385627,0.5038055232074732,0.33500873022107847,-0.9173282564796277,-1.2449867221299105,-1.1756819481291945,-1.4525940356552605,-0.2655625423014348,-0.9657662913236961,-1.2346078309289346,-2.377796856378014,0,0.0,0
6.1465,0.5673460417396263,0.491879718413972,0.4825677827467254,0.5639559587086157,0.5800768905783026,0.594910131879051,0.627421311911697,0.4712829274052317,-1.0532646810639943,-1.167531659209672,-1.1411646932770123,-1.0707434013840251,-0.45211911707647057,-0.938351457099131,-1.0289790675417136,-1.97873655418306,0,0.0,0
6.2465,0.8521355379448246,0.523752831525238,0.9408102714756411,0.9387655623717073,0.6640662117629624,0.827942666437091,0.5247744724458083,0.6583853839427412,-0.5049331286181096,-1.0644143659542322,-0.29584407250174605,-0.2685969390331851,-0.2527277586968159,-0.5237501321698473,-1.1730884150104817,-1.4280777247939802,0,0.0,0
6.3465,0.8255365034266328,0.48813125755778886,1.1520999675586,0.9311870146131749,0.6181950279980769,0.7792431570850912,0.46794981447435546,0.6783217480396853,-0.5806246309957319,-1.1579755116772232,0.254202088789523,-0.31475606862666866,-0.33902438582074595,-0.6256704434558649,-1.233134546323447,-1.3667748828957291,0,0.0,0
6.4465,0.889421219880862,0.5603987034526258,0.8877420096842905,0.573128105912699,1.036709295991175,0.7813975125360443,0.5567417584870838,0.7234855777653145,-0.5665624285973064,-0.964924183000751,-0.3849961706957775,-1.0597771527802564,0.2705064555512845,-0.7125264038138116,-1.110203179383889,-1.318445478877139,0,0.0,0
6.5465,1.528141780734813,0.7258987183341947,0.5100235001552389,0.5655645027218464,1.7430288649129626,1.4628150508641808,0.9692156206992254,1.1669375995709355,0.6094353187454185,-0.5508501511925021,-1.1144868192511543,-1.0401541737075874,1.6467616303482222,0.3722584953918847,-0.6136018736129806,-0.11986184029366084,0,0.0,0
6.6465,1.3975241664965565,0.8297912482225465,0.5491895401506267,0.6170095750175165,1.6387338702714043,1.4222165431072362,1.1118984544675248,1.2368770152780455,0.2715040179038261,-0.2543687876845107,-1.007492103523923,-0.9095954069673943,1.419817820562327,0.32109460323128003,-0.34123446533476093,0.20384326278464662,0,0.0,0
6.7465,0.8028849534210459,0.9337546129641809,0.9091533743743065,0.7767718547629865,1.2315114855265272,0.840845503572135,1.2078600154577999,0.9510390703227612,-0.589912990337972,0.00023634416388437868,-0.3022964163833062,-0.5965588655055353,0.7976385936967831,-0.5381647383516556,-0.2848592725233878,-0.5742127521415576,0,0.0,0
6.8465,0.8807855491330489,0.9418482630211695,1.1118970233920515,0.9928036254418608,1.3136716601040435,1.3183383517720273,2.0935483633245253,0.9242546965504989,-0.4147446723957774,0.0173409672959671,0.11149591842722537,-0.08302430617139374,0.9530131651960432,0.20694575173327667,0.873951179994151,-0.6484598946333968,0,0.0,0
6.9465,0.7976512238173757,0.7373517626247176,1.0384007089425153,1.373433130665992,1.058550550996848,1.6306506170951818,2.4196003396944543,1.0645428925827967,-0.5740584916492274,-0.536255269752155,-0.05329576656535902,0.7250317913841815,0.429136528339015,0.8852349542365553,1.512809574835858,-0.2661876734274638,0,0.0,0
7.0465,1.1224054716499248,0.7848858928158774,0.8779416840153819,1.4008414594441656,1.0281748899649965,1.6227243526260036,2.5706356014453857,1.5397437418303623,-0.0544210521669584,-0.4120684518946534,-0.36714410495169725,0.8016854931219034,0.39972970006033703,0.8731367073608256,1.710854776495824,0.9897431470564806,0,0.0,0
7.1465,1.338669284143579,0.7966500476459434,0.781035462547473,1.024027963891629,1.1857471725415702,1.4747731163776885,2.6074873501277773,1.7915130962704953,0.4441747001262184,-0.35838405032881687,-0.5845931491998937,-0.010583000187526448,0.7306685088685088,0.5808817167074958,1.7753980633797215,1.8277631671643753,1,0.125,0
7.2465,1.6136579052451914,0.9894946751145863,1.2832850545116123,1.1436227350897241,1.2465231661626934,1.091482276276876,2.5183968998199946,1.8092236008750986,0.8886273072516837,-0.01935897280864567,0.32429165210570643,0.21512238011077214,0.8504282429167129,-0.1665498792489954,1.6141454314546377,1.880501291940503,1,0.125,0
7.3465,2.342455053860829,1.5078029252010796,1.5810482713029672,1.4434535287950117,1.8302603034295406,3.5886260320495103,4.013607832490754,2.087076394524919,2.2563526984814217,1.3529414665387172,1.1405431620164501,0.9170406510217316,1.8125965664166526,2.8039914214191373,3.5073386189953677,2.6512899292337226,4,0.5,1
7.4465,2.344402012923098,1.5286084956725465,1.3186496241326475,1.4941761509984233,2.4180186848109777,5.64289020632561,5.07406329241994,2.1086784449979215,2.295294150955362,1.4829629038717116,0.5717925375292868,1.0518542773541915,3.0417289819625415,7.452860196923135,5.2765998604048665,2.6887034431621486,5,0.625,1
7.5465,2.0019570937671927,1.4180411318421542,1.2801645888117585,1.7894213390353182,2.751376170058849,6.105446108676566,5.635523890145272,2.734329174017426,1.6814332322779566,1.267026206008102,0.4955829978128954,1.6576906682238408,3.6980841236542896,8.482133157621128,6.051956747849919,4.211887314024358,4,0.5,1
7.6465,2.2790432670677747,1.502287670873134,1.4883571148863328,1.918624660404679,2.658059328014774,5.1337894191199815,5.086695729365782,2.9873955745644714,2.2074442060779016,1.5001254430763498,0.946448474714845,1.988775532003051,3.488561696323511,6.623730626517478,5.114687117402446,5.120490342375138,6,0.75,1
7.7465,1.9753249945407565,1.4270265997539617,1.4447099326314865,1.5973935175021223,2.418102673231118,4.023689322800135,3.6169350692422233,2.0144052741937033,1.5102389838130217,1.227114967386387,0.8364290682650668,1.2539282590853231,3.0482121831097317,4.900536654805386,3.1809120574636838,2.0713085102617925,4,0.5,1
7.8465,1.2205629189044502,1.1932543376326323,1.0382622565304016,1.272896087226695,1.8690945487237458,3.063687581248975,2.574838708879749,1.0701732507803237,0.20152444141030404,0.5631546939899557,-0.1511994588883203,0.526652502758845,1.6804589750325223,2.826421187202375,1.4179062864426397,-0.3078319728145332,1,0.125,0
7.9465,0.9132570319204913,0.921820831337407,0.6080805469259749,1.238550328862477,0.7487401022520837,1.3069714630643154,1.1097231649309147,0.7081231414077847,-0.3941135296453248,-0.09533511293438825,-0.8477068168624882,0.4782261973352299,-0.23298653920664347,-0.11547889318588471,-0.452938225255555,-1.3754941314356177,0,0.0,0
8.0465,0.6435064584507197,0.6456326378077624,0.6918036378284858,1.2690344336657104,0.5373081240570533,0.4596965364337343,0.5715834461869969,0.6129044016030557,-0.8956787623007534,-1.0253950636962166,-0.6718607746067409,0.5152797266438917,-0.5297324567288516,-1.1271770003065258,-1.1105578273897954,-1.617654643551563,0,0.0,0
8.1465,0.6083235075816457,0.3905384976474689,0.7187256293416996,0.9798362003693717,0.7413968536315102,0.3964595092491071,0.3469417347016968,0.7291311724089361,-0.9416884696171821,-1.4541327350681144,-0.6152343772291418,-0.19360199268532238,-0.13695939672471702,-1.2279007522511396,-1.4207420753812245,-1.2415546282717518,0,0.0,0
8.246500000000001,0.5516231507752486,0.5297048883506271,0.7581392377523308,0.9201939404267445,0.8234584796875232,0.521456746883663,0.6910528923916027,0.6430718306425108,-1.0761049292835265,-1.0287283932096547,-0.5466365101944256,-0.27439424562553577,0.047259791215990346,-1.0433406195742774,-1.0713744400891538,-1.4711813840020245,0,0.0,0
8.346499999999999,0.5581374261469897,0.6217269654141541,0.8712197169013534,0.8625443216347197,0.7897482423344427,0.6216066263851066,1.2093456484366556,0.4501235467037887,-1.0771801177173883,-0.7941685251091926,-0.30997950374989086,-0.4258523701585755,-0.022271507338463722,-0.8495584429173748,-0.24032922069963075,-2.0394744662080324,0,0.0,0
8.4465,0.770947028617101,0.805542669906047,0.7637022803983929,0.6242777497760558,0.6203317976818198,0.57649020502986,1.241788508374749,0.44303745592965754,-0.6476520201255375,-0.34172215945255024,-0.568724915427879,-0.8940757297145407,-0.3948189740930625,-0.9260637522428236,-0.1749959320619922,-2.0589820175953895,0,0.0,0
8.5465,0.655752110600243,0.9097946886724767,0.648343921362765,0.8309926807280431,0.4557089802728457,0.42174638636024964,0.8532913681731226,0.5795924643350473,-0.9529526752545895,-0.08122860473844931,-0.7719472364509022,-0.4755190086214739,-0.6609858105129992,-1.2291214342480046,-0.7331687048957661,-1.6320651543383142,0,0.0,0
8.6465,0.30889556791874123,0.7126721676060024,0.650292878088591,0.8024694107403285,0.5725937769097684,0.3277013091432964,0.8773725422466423,0.9444796821955567,-1.52617292987654,-0.6994585856830793,-0.7633665403438457,-0.5850508779171386,-0.4419473825939017,-1.3560008488550617,-0.7250450703199253,-0.8180421901285275,0,0.0,0
8.746500000000001,0.33004897480215384,0.7516367925287416,0.7514986097197616,0.6160282518739334,0.8361527534550957,0.569698029055744,1.8702653435654968,1.5355353804528113,-1.489765286974407,-0.5886935871640758,-0.6014825825750951,-0.939123101153116,0.020469265342376856,-0.9790877111025823,0.5216990610494607,0.8762127399477272,0,0.0,0
8.846499999999999,0.5344279318799039,0.8057051276879749,0.9956867346574759,0.6222366126264547,0.9843706184282682,1.1034835462050157,2.4513372304946635,1.565364386286676,-1.1143182266027263,-0.3730273766710267,-0.069806616514997,-0.9061960268326292,0.30033574608959235,-0.13275277958337234,1.5630812231202773,1.0893342479936898,1,0.125,0
8.9465,0.765980175179208,0.5715314363828953,1.3414724816771586,0.5390738740630813,0.906616442589554,1.3924532392764066,2.6569006159370048,1.5360172392652602,-0.6505909706210719,-0.9283142260327386,0.6126524581643983,-1.0941795718457425,0.10965509010199417,0.4476152103307571,1.860678245013936,1.0317517597493877,0,0.0,0
9.0465,0.9413294421859443,0.9378352062058003,1.6996231544835871,1.186288355313512,1.8597880695112101,1.5791460802087172,2.5501673583374287,2.354273852773437,-0.34098417046471874,-0.17494191335680154,1.3740027200988079,0.0015848215552336708,1.5338441438618846,0.6659102513114965,1.687437567357428,3.2320614035216666,1,0.125,0
9.1465,1.3557598544437963,1.3696526202990595,1.8023998765652474,2.1096641980396047,3.1298758407867804,4.904803732787908,1.8769307449237325,3.119559763507529,0.38308684122569775,1.0821491796132834,1.5872888365896616,2.2660331443597026,4.2632123190896944,4.992737769222697,0.6689767212161017,5.539987498196503,4,0.5,1
9.246500000000001,1.656212211382012,1.9388650487885501,1.7496076886128065,2.2697016047492276,2.989022575082076,5.806100759884232,1.653416987415487,3.1633598526656135,1.0581184089050282,2.507785120743257,1.4769330628503345,2.6758497253769,3.673487905924259,7.105510220347945,0.3073659139864346,5.721374400671608,5,0.625,1
9.346499999999999,1.4436870391111414,1.6833692808465452,1.4398475075029369,1.747967411430251,1.5260913093616622,3.520150453166289,5.134600754012113,3.3550110125681387,0.5747277256500509,1.2856190299938022,0.7816323213030268,1.4587038607554255,0.5598233346239891,2.8289455861521318,4.128975702403384,6.208136472250576,3,0.375,0
9.4465,1.497829118574427,0.8526891685330292,1.2952114580609644,1.9105881559526885,1.8661953965163454,2.9345002994564577,6.848198800104276,3.775654372932296,0.5962462890662327,-0.473152851781177,0.5281354091197958,1.865794185006432,1.089782248325224,2.5351366950286005,7.523376631514858,7.469839434607245,4,0.5,1
9.5465,2.0376750347772887,1.6563983945437368,1.6912917116697577,2.4848666631655036,3.692701926433383,5.329563717278059,5.846155917762358,3.4705562446443676,1.697064750047618,1.5488242386761928,1.3493798503569956,3.257588155393726,5.044970501506174,6.822157065122297,6.177486723489486,6.56787619811253,5,0.625,1
9.6465,2.243012560594875,1.8840767148002977,1.7718538049663555,2.3730060871094016,3.886227412477546,6.730082851705528,5.063567349795945,3.396374876615723,2.185080117044882,2.442617371590105,1.5350499812226974,2.9807681732806777,5.72226134350672,9.480854548594909,5.274784472004686,6.356049094562565,7,0.875,1
9.746500000000001,2.7058816429758883,2.0290944610476687,1.976156380550584,2.3047342530786192,3.3618114592573347,6.110571810684032,5.109974746226767,3.937161899169764,2.8668242757840727,2.533532212023484,1.788135200689605,2.8179947832339782,4.683773828883015,8.246971074115217,5.335894636293424,7.712359294668432,8,1.0,1
9.846499999999999,4.163483409131602,3.73094382128966,3.5389383225227724,3.301681087265566,4.9829493308786,6.75592253742807,5.634764381142288,5.153837784454608,5.501626217343399,6.567470897505622,4.670418304588104,4.937106362885121,7.484681061483481,9.240886233575388,6.0192428717596815,11.012018903619591,8,1.0,1
9.9465,3.8543515224399156,3.7740897104654785,3.735356019706833,3.243739277806921,4.719264997489641,6.923315067185213,5.495147237191463,4.9997256178559715,4.685377226184908,6.911068653735274,5.355064119142742,4.803798422460778,6.835279549007978,9.68591172388628,5.638480877343378,10.561678416489949,8,1.0,1
10.0465,2.1705731410673783,2.0396016018275596,2.7231705990935557,2.294015576847416,2.7728284354661232,5.192809176174621,3.612102602202029,3.2262062342244824,1.96884274047995,2.658680387177488,3.4732317591024495,2.863201227497436,3.722130758019702,6.90345356554775,2.6602429767040165,5.6445455047682875,8,1.0,1
10.1465,2.53376928987174,1.6941547214724255,2.4133899184497616,2.371526806702878,3.410863418647571,6.395483081333189,4.270050256197021,2.8265093204262586,2.6694738330289662,1.8921031204390406,2.8450935444884093,3.02320903150405,4.849592038895985,8.704101120224161,3.503615156730874,4.74077771482382,7,0.875,1
10.246500000000001,2.365805445949658,1.8577183546571086,1.7868531399514884,2.2140339831797133,3.440771067732016,6.205045316814786,4.668204877199675,2.540768242307067,2.1088817746336193,2.2173712456790535,1.3447323511466336,2.4199509894895717,4.723022925111786,8.05353458301131,4.312920533259544,3.540864265416928,7,0.875,1
10.346499999999999,1.2606992980107106,1.3860696201456901,0.9813196652420357,1.3669410396379165,2.0572578158414454,3.3676599710021407,2.5776069593780186,1.4339625342146534,-0.21800580914016796,0.8045706629863983,-0.34833169359972266,0.2752991082288502,1.5603217866455714,3.2879670682644178,1.265303285092228,0.34416306597938706,2,0.25,0
10.4465,0.42130478070713245,0.7130758970566824,0.6775694548151004,1.0069779560123595,0.7251568269989429,1.6530134638019092,1.2892176640429012,0.8451111408835144,-1.2938503222192517,-0.5661535337348196,-0.7277330428441249,-0.16341453964797903,-0.21848087688405277,0.7598297324489613,-0.07383749231708187,-0.8900553990121536,0,0.0,0
10.5465,0.5718288238479137,0.7470274647059224,0.7987387703515614,1.1820358232765613,1.3544914395245728,0.9879368931626242,1.0302794905951957,0.8618517322209331,-1.047592236344897,-0.4807485902781973,-0.4494402494828548,0.35904857105193455,0.8523673447299948,-0.2928029288581935,-0.4934692928628468,-0.8262597989119246,0,0.0,0
10.6465,0.6428476591998482,0.7793835364577658,0.7046330426235206,0.898003651248992,1.4429218670290918,0.8400937047011341,0.7163209974074579,0.8066725182010868,-0.8962839545657292,-0.3786766544516811,-0.660540341687854,-0.355592462772916,1.0682999817513106,-0.5064750001241268,-0.8927060261950214,-1.0126887920128858,0,0.0,0
10.746500000000001,0.5916738109243076,0.6236972983244757,0.5391746066840899,0.7895072814611401,0.8742831286138074,0.6431660893187309,0.7859350729755337,0.6023749410583681,-0.9909768606143013,-0.8035835778687838,-0.9913969787975975,-0.5650921624128789,0.0009014300592518743,-0.9049542000630523,-0.7928171318734359,-1.608027289162604,0,0.0,0
10.846499999999999,0.6452878018178103,0.5818842608518174,0.43589136758893154,0.8606807139766883,0.6735508692984243,0.30132440927116955,0.6742060408172676,0.5152848753309829,-0.8992380815875718,-0.9230579386628497,-1.1974623563818512,-0.39494033279315505,-0.2611494059013914,-1.4145485708760321,-1.0044682354074903,-1.8193576911355953,0,0.0,0
10.9465,0.5365336565023412,0.6796674414051088,0.44129792951106556,0.6340713692446663,0.8087483799133837,0.2543659275490288,0.6313809036501358,0.4937136450008987,-1.155473353704498,-0.6717013135403712,-1.1871458736828886,-0.9604997856597945,0.005614282937254375,-1.4840148327965097,-1.065543762871232,-1.8868222971845556,0,0.0,0
11.0465,0.26879921155441705,0.6055143225592855,0.5228109533569434,0.3338188975433454,0.8663608162651075,0.6264328792112323,0.8325544904108197,0.5135295293592197,-1.598225352869205,-0.8723359855097336,-1.020740962778256,-1.6007133211595361,0.12846657390985355,-0.9578126948989216,-0.7283051022529606,-1.8337379197663273,0,0.0,0
11.1465,0.4770171906381855,0.5501169020767843,0.6779381065350888,0.30901308754349494,0.8013965021722067,0.6644938970420997,0.9194072012082586,0.6175461410022608,-1.3018539697106652,-0.9945307387764127,-0.7202518896752403,-1.6545492848930832,-0.010170375540285865,-0.8331982413102775,-0.5919153403790581,-1.5383108476833878,0,0.0,0
11.246500000000001,0.5830608460555075,0.8940579304388155,0.9677885728837134,0.4646726450015542,0.6932934689017906,0.45471186233686905,0.9434210992110372,0.8556650419717953,-1.0079035572671915,-0.17382998070026862,-0.1326387710467946,-1.2819115506286223,-0.2406301912139975,-1.150183543756212,-0.5585055584620932,-0.9145386593513861,0,0.0,0
11.346499999999999,0.48800374599505775,1.1269503927580105,1.0916187057353173,0.5629406117832341,1.2257052622538032,0.8937702757696618,0.876197607688339,0.837928814608138,-1.1795233850726574,0.5292215792400868,0.15209360364460947,-1.0321589441801673,0.581024750924823,-0.5153753570305766,-0.6660025573280663,-0.969759852617067,0,0.0,0
11.4465,0.842084683701608,1.4396913911532558,1.5764499489616302,0.6914391283675608,1.5272193108558658,1.8953450304923096,2.0510855878942382,1.24124450628292,-0.6398092178335064,1.2339072360649892,0.9808823454476936,-0.7995366760539016,1.3748982054520544,0.9918680341281703,0.49641252812238046,-0.3266361225867583,0,0.0,0
11.5465,1.8729563363026713,1.6101356008480856,1.8017095862820431,0.9228165013748093,1.4879363573705933,3.977504797758845,6.380799419988651,4.277708705271774,1.2055110636081414,1.6678084733145244,1.5199537931119464,-0.29531449909808877,1.2957230206697812,4.315477834750026,5.919835834744482,7.019864509457709,3,0.375,0
11.6465,2.1225400566458563,1.2344272139828854,1.4273342095331156,1.1045884923730405,1.5026659714428376,4.515076603805903,7.892701003559443,4.883236156525395,1.8384419527234277,0.607784149056559,0.7511317496223227,0.13202898764264157,1.2597339682732251,5.717582897600992,9.129949803408673,10.114751420803604,4,0.5,1
11.746500000000001,1.590221991279885,0.9699069309164121,1.590717572219176,1.5337116428787816,2.0691526599642187,3.9193573837192814,6.469991712804566,2.996553022202501,0.8346554774696456,0.08797696431532319,1.0809088130694533,1.026638755553832,2.225202253615051,4.77928854478008,7.14401664472619,4.798228837647838,4,0.5,1
11.846499999999999,1.9898777638433902,1.493375528821032,1.8510162509943082,1.7983625254175122,3.132970312449662,6.200780182801757,7.937471008287021,3.087711641840346,1.5073318201435983,1.3324262500801383,1.712329114957395,1.7412559381322685,4.3021392093611155,8.02803462723846,8.944250961112278,5.039425431610857,4,0.5,1
11.9465,2.2424228310956695,1.5820788010246138,1.7594543846611839,1.70290654305716,3.5773652829920155,7.914127788134095,8.895093930183071,3.7169279896984615,2.0325901998516267,1.5353214529401766,1.5246649541134036,1.513295601956649,5.090190955496722,11.254024600521202,10.52048114820408,7.0973741914216895,5,0.625,1
12.0465,1.6794157974309167,1.3479623870822375,1.9337879980240054,1.8340927051317595,3.368101332458128,6.933962602004308,6.192560641890142,2.9129560870678906,0.8808673229160867,0.9582173731978044,1.861351113822599,1.7939167650010535,4.637401275421373,9.391778234393048,6.088863623161626,4.618743035894508,5,0.625,1
12.1465,1.8617097133395406,1.6096831160589902,1.7909687071895664,1.9097471754758815,3.9994028205735,7.852054756962184,4.984995768703718,2.4193934431802817,1.2813499997581956,1.6972715423057863,1.4632018554751796,1.9910489771059554,5.8722325225579315,10.927155781562728,4.838489391451381,3.564231768776513,5,0.625,1
12.246500000000001,2.4221086687082463,1.746464425998823,1.539354020424895,2.057350623875008,4.480255722699969,9.44426673367951,6.202099590796891,2.719705015319146,2.5238416970226027,2.0656967140806795,0.8196706491912265,2.225406288031545,7.014143587292045,14.194705131450357,6.864195144945233,4.4827592714834745,7,0.875,1
12.346499999999999,2.653848746749145,2.1427947204904854,2.4960517241164317,3.0389330094262625,4.420280478866042,8.269815762460707,5.361227508048533,2.69039615100383,2.9334335787505195,2.9551066063043057,2.569701243575148,4.292353227717052,6.874131104571688,11.952773935918577,5.559086670664455,4.353362262408711,8,1.0,1
12.4465,2.1042349960395756,1.9222166486568295,2.3765007251720625,2.93924736263918,3.560310099492625,5.332351318873944,3.734494019607175,2.082776398201122,1.5252441791236566,2.11762868439639,2.354980141722539,3.9816612932056574,4.828196316256783,6.249488958143778,3.259223003732524,2.206865978629291,8,1.0,1
12.5465,0.9685554998725993,0.9655704280166241,1.1683302834648077,1.8357353332217516,1.8200482388141817,2.2176621448747897,2.459581131610371,1.0434140572641428,-0.31000048241644174,0.06797295152156542,0.29092285983625804,1.7230225329432012,1.818575484913262,1.7156699890608706,1.411079672616691,-0.4214268574964298,0,0.0,0
12.6465,0.9215691689042014,1.0657873385748962,1.4361991804844627,1.9590798550772761,1.6034249928965292,1.43207986299348,1.415690631465913,0.6450882659717455,-0.3473520613986875,0.3351730940147528,0.7111480808309614,2.048442687167917,1.44542012925542,0.4917432005235749,0.05732981759225257,-1.538647555844275,1,0.125,0
12.746500000000001,0.9424598536176892,1.251467819741078,2.376497503272152,2.0744848424619,1.809873559660232,1.3418817849869282,1.127590076440769,0.35375768840578115,-0.3098237106948919,0.8426296350754029,2.571988183051756,2.3540005846391328,1.8615387257349176,0.3737369562875492,-0.3081689460916926,-2.34905614876416,2,0.25,0
12.846499999999999,0.6410096261667421,1.0996151264469276,3.0214625814528824,2.7357049291195725,1.9642901840381675,1.7747142639837858,1.5099471184557425,0.5057541936050621,-1.0179882173681498,0.38878662291785276,4.081583316093826,3.4755232729539567,2.148037558102517,1.0821872480306907,0.1844644958377258,-2.0346546723336045,3,0.375,0
12.9465,0.27406834948760145,0.9702608506836531,2.758452872556648,3.4966427982183714,2.061638646985267,1.7979658461491534,1.6805447536996658,0.7393876699077608,-1.5886587009838016,0.08893326924597489,3.403623893831954,5.302145203588355,2.301144562661026,1.0176104551714993,0.4257581966526491,-1.2383927595042228,3,0.375,0
13.0465,0.3421048697141494,1.1335489240876557,1.7058211782479247,2.6272145148875414,1.64364831079351,1.179201774724935,1.1874921925629784,0.6682785860679831,-1.4670760739279731,0.5129689021705839,0.956900245830097,2.5078803005088446,1.4282859394437777,-0.18959453032549248,-0.4098541522968281,-1.4350810334129034,1,0.125,0
13.1465,0.47944189222394373,0.8709290796315788,0.8364134265584198,0.8041916850304447,1.086967162883792,1.0015855811063783,0.5669456282698471,0.974131608854184,-1.1948337016721997,-0.47390495869590765,-0.386867102102167,-0.5761437219892578,0.5317854592375939,-0.3218220447358743,-1.093722347912085,-0.7742429791151504,0,0.0,0
13.246500000000001,0.6302487742233397,0.4017122829924271,1.2455787548927,0.7323452567814581,0.859496793273497,0.9262485542440948,0.5405703312369622,1.2738041112918528,-0.903993219060803,-1.4185780763658067,0.3661111717521374,-0.6745403791865995,0.06086527862315835,-0.5191052967366496,-1.1284186037599107,0.26970855723913323,0,0.0,0
13.346499999999999,0.6628988946991671,0.6214846081419613,1.4051302631098883,0.7801226455404956,0.6093030626458666,0.6049287029458951,0.5942801697328479,1.288911937204852,-0.8317378505051903,-0.8709548553319343,0.7637312673763819,-0.6087260695485329,-0.36263684898705406,-0.9724096803825159,-1.0549854649523243,0.2543126260814653,0,0.0,0
13.4465,1.0829892822730747,1.58331892423216,2.117328873754773,1.6874230988747774,1.3906707667669875,1.405575981677913,1.3272681725298061,1.5803658919352792,-0.260253676686967,1.1917841579682922,1.7940797068163017,1.1110617482418963,0.7041259290662738,0.24761020586424018,-0.3030005236762413,1.0751157722880427,2,0.25,0
13.5465,1.8235706156991518,2.2871121379561625,2.6718806947832285,1.9737609871954753,1.8817435183507996,1.8227573528389034,3.1816778902844436,1.9031454505274856,1.2250703877649165,3.4010422339269453,3.0616229845050524,1.9607938753389107,1.8289665554163934,1.1762706134147394,2.1647042073993843,2.1380549775498783,5,0.625,1
13.6465,2.0597773429603303,2.4645778014696513,2.847400722740391,1.6662785931879933,1.5948112608080731,1.6639474633136189,3.90068237046866,2.290323705287401,1.8389496906562848,3.97768489318247,3.494651874244174,1.336741815275069,1.2333816881565824,0.9014536903514738,3.6129160763277515,3.1458182481079695,4,0.5,1
13.746500000000001,2.106724925455656,2.6456841112079332,3.454410623711896,1.9364218272035478,2.0614694664318014,1.4553688803408704,3.1382388782751955,2.0621572117841738,1.9149388282409605,4.434457022888077,4.800424119736207,1.9996095438490478,2.075646890186293,0.5192307434989695,2.4383361736244984,2.3232965374007493,7,0.875,1
13.846499999999999,1.9380543889957391,2.3112425900563256,2.9272298095858353,1.7215534493851707,2.215111943914755,1.9894411271740073,2.197601946924283,1.7092698151445573,1.5432190660730958,3.4019570571673174,3.383979425966801,1.3325150744476328,2.5904287589327906,1.3219391185784195,1.1204420643350224,1.4968786237399576,4,0.5,1
13.9465,1.6933440924793663,1.7769636788913334,2.300081782911106,1.3166225742633701,1.5580833571980641,2.7097259620810337,2.611127759649241,2.2469454573855163,1.1327553923370017,2.1454556607016424,2.348367897031939,0.5655861886756424,1.4184812528892206,2.6891637125395054,1.631012514786965,2.997286356358157,4,0.5,1
14.0465,2.8936506843774006,3.1233822167230136,4.173105518503208,2.676157797814531,3.3933067035642166,4.076982339596113,4.2773301810451025,2.420619859377923,3.048357820418074,5.1045208623725316,5.998844821639587,3.1355788479411246,3.8343061411500865,4.366620756126188,3.9677472952798984,3.3255217885202466,8,1.0,1
14.1465,3.870547878772211,3.7819311283521335,4.810084369487572,4.108293872693607,6.020760193325961,7.9598086649380795,5.551023095750082,3.4207590961614507,5.145664884021218,7.189342545891229,7.493126522854452,6.642069737356106,9.246256551709822,10.412597899767412,5.922136781785387,5.850859619900104,8,1.0,1
14.246500000000001,3.838698284240362,3.322708174628237,3.8514735903660107,4.161710437511553,6.169220127590833,8.866161634526074,5.49904364677227,3.9890153738501724,5.1760191654315415,6.02066616470354,5.439166363878062,6.948057987692968,9.964080296506516,12.979928131786641,5.864957582701374,8.085261174376067,8,1.0,1
14.346499999999999,3.363843001840956,3.1042941307558527,3.656512643335588,3.3558196701679215,4.430307129006515,6.813866741732813,4.481823896670849,3.3113127827430127,4.313922610861657,5.641528258785758,5.291148809131637,5.236527762443535,6.794273655794277,9.540762684587717,4.345418701253581,6.029390050443247,8,1.0,1
14.4465,2.4215476100262285,2.6177340340253243,3.3952437140502907,2.531948329960501,2.801247848598958,4.49794029587492,3.037694620955599,2.168559704580676,2.1006175604783177,4.1323913367989915,4.604879131968805,3.1382673496541647,2.8264763217501336,4.437756776941777,2.0872651572150382,2.274261392355563,8,1.0,1
14.5465,1.1820100757880743,1.4749933027372442,2.08035770748771,1.3919697778383204,0.847995058912969,1.1667356468435872,1.6034510060711762,0.9350747098312701,-0.05957223286867342,0.9004291426808944,1.9127628417840015,0.5984784523441351,-0.2659223629505673,-0.431834064208336,0.33225238265308066,-0.8403376061558737,1,0.125,0
14.6465,0.8132412512669392,0.874568716681675,1.2045270462597997,0.7814879486645712,0.8373244354457388,0.35303676913200244,1.53767204680182,0.6592125258583806,-0.5537934581972993,-0.20203998868886144,0.28142827624406,-0.548677118157034,-0.055196653675903214,-1.3205345219674889,0.2448613496624422,-1.406058824877305,0,0.0,0
14.746500000000001,0.7674384623206377,1.0378914212445718,0.6615329605234341,0.6649454942375079,0.9475656668484023,0.4802421348940087,1.3552987978741151,0.7593327928018283,-0.6290665532969569,0.2854489287868964,-0.870490071219204,-0.8008027722613206,0.2767859689995678,-1.0944199518766426,-0.08493582920735257,-1.128351426908544,0,0.0,0
14.846499999999999,0.7311857928059786,0.8238193634591159,0.49910309547681175,0.682215128908173,0.7965479735071761,0.46966481025375717,0.8430726587709985,0.6886875513480227,-0.6995038434905694,-0.3797140138929624,-1.14721638207072,-0.7644113163279839,-0.025081554486150907,-1.1146545940456531,-0.6995441008763744,-1.3572027266755429,0,0.0,0
14.9465,0.6368404495993968,0.4740887400227765,0.6996006186043479,0.6499141581152725,0.5664845191090534,0.34518432533034826,0.6648146110954383,0.49503448583700843,-0.8902034975341369,-1.2048075140832044,-0.7012279641593406,-0.849348984765089,-0.5328478848144248,-1.3153487879339658,-0.9942026624322599,-1.87681845641521,0,0.0,0
15.0465,0.4888958686312979,0.4204998289298875,0.8292097218477782,0.6350410728025659,0.635774378845094,0.41060524130252557,0.7102457485569563,0.37087873083873973,-1.185944239844718,-1.3122822598009989,-0.41925031524028894,-0.8791209451346669,-0.42116973830200294,-1.2142351258745194,-0.9485176715116661,-2.246695663092641,0,0.0,0
15.1465,0.3473233868342343,0.41495067705871386,0.8334963864738728,0.6270476547331325,0.9856071491574506,0.4877947805678893,1.0146295645067993,0.3631185386783166,-1.436989154151749,-1.327303132483121,-0.41491171037008856,-0.9059724627824278,0.3297792918968063,-1.0737821651461563,-0.4705550007871444,-2.280134485369167,0,0.0,0
15.246500000000001,0.4700086316060157,0.5261390319386486,0.6137842045097153,0.5785643419994831,0.8869257585365987,0.5341219379523039,0.8853420008960569,0.809207161740535,-1.2498864862182795,-1.0884497449140145,-0.9118844571471846,-1.0141177400311385,0.07961927565582963,-1.0005189004137605,-0.7114131142990746,-1.2005023977943392,0,0.0,0
15.346499999999999,0.5167203122596865,0.6420860277795973,0.41154351738055983,0.5984794232674095,0.5629041663088531,0.6416566533553627,0.8238996213416924,0.976526720888427,-1.1381067030922332,-0.7516586235863622,-1.2624905854941222,-0.9704642100588867,-0.4530453360353349,-0.8497976687671137,-0.7948382975602928,-0.5720361547611987,0,0.0,0
15.4465,0.5001353054307567,0.6455956083250113,0.6269687295919926,0.5241425116467214,0.5769592255610756,0.9886638013071027,1.009387645035414,0.8203149045573609,-1.1568604888217398,-0.7332255694209259,-0.8662183889013789,-1.143807502681955,-0.4259053475523205,-0.30708722446164904,-0.4830940386827708,-1.003017834013192,0,0.0,0
15.5465,0.6479835745292037,0.5639881747640034,0.6644419771438549,0.70162714293983,0.6468879882686888,0.9674166081512439,0.9417892637465967,0.7575311781218828,-0.8769879420324369,-0.96589306252961,-0.7483566779548566,-0.8034316149618929,-0.2952876527093559,-0.34811435725771694,-0.5674861079872335,-1.1468353509743072,0,0.0,0
15.6465,0.67226039094253,0.48824022306289105,0.6025299219646765,1.0829108778307048,0.818459727332935,0.59197610620581,0.745327264081157,0.7518416202471345,-0.8585250800359487,-1.1473231058046123,-0.8584539302285752,0.09508066143825633,0.01854652287539802,-0.922857388276615,-0.8646520976956369,-1.1540616185370973,0,0.0,0
15.746500000000001,0.5148939352478609,0.5695001613480983,0.5721825044083816,0.9873577045445909,0.8935350537429257,0.5607759261832411,0.5832942121382528,0.8054736204327864,-1.1735687091977418,-0.9324165484295217,-0.9316621739637497,-0.24354034252672144,0.1674726645580933,-0.9466950878416023,-1.0959663663833934,-0.9953207430913942,0,0.0,0
15.846499999999999,0.6396668386890015,0.5807204959834081,0.6829693259823375,0.89137838394532,0.7476991126159068,0.5776571656194973,0.9021798053795201,0.9543553688378822,-0.9630249764892953,-0.896896613502202,-0.7504416878855573,-0.457154140382872,-0.12015412474608045,-0.9110689135388604,-0.7013567823913169,-0.5675451355713133,0,0.0,0
15.9465,1.0393754533774853,0.5165214183822595,0.7328684585378609,0.9597127427929416,0.5790052876661448,0.5417719415935137,0.8959907361917047,0.8409188547748606,-0.16420880545932237,-1.0851261216246373,-0.6294818900126335,-0.25404124090112745,-0.42147765257697406,-0.9859906602108398,-0.6948043805347534,-0.9819756225625508,0,0.0,0
16.0465,1.1034415028871072,0.9042226011830079,0.8377044188740949,0.6803782451727755,0.7189502864122752,0.547300520234023,0.7991977738997315,0.5830806331518721,-0.0035930157378271086,-0.252472376769484,-0.5316268189205786,-0.8555565470643901,-0.21364670399740876,-1.0071810236451773,-0.8142454570998549,-1.639714703033062,0,0.0,0
16.1465,0.9576413953980668,1.0123349864473976,1.415005439079173,0.6997737290567317,0.8599434371956123,0.6343514792842135,0.9135092538350492,0.6801746767139872,-0.28207778160398517,0.12890689123340698,0.6225748243975942,-0.7732462695426352,0.0681007303342222,-0.8610734430583648,-0.6198423030692287,-1.3689943561825646,0,0.0,0
16.246499999999997,0.778518403738379,0.8255799404640952,1.3485482892511187,0.6471287889915471,0.7192477743623282,0.7854218418697663,0.7036057506665554,0.6360963046369561,-0.6671875231810531,-0.3522167403707271,0.4748252021086589,-0.9375235924032959,-0.20458552473281283,-0.6071172511581201,-0.9313429027713447,-1.5210885351552799,0,0.0,0
16.3465,0.5699646689462895,0.8684021160782368,0.5911648106924874,0.3502903465134213,0.6047469099201271,0.7969763088453378,0.6590573661845582,0.5978427737029234,-1.0091948392407746,-0.22735948273890916,-1.1622186092509197,-1.5347518666516822,-0.36804837898528275,-0.6008127536540204,-0.9804460844481053,-1.6161272409717968,0,0.0,0
16.4465,0.4674063713290439,0.6845951672547609,0.12999774143514084,0.3273151996335676,0.6524194492845257,0.5938250793130658,0.6879429682536955,0.6353342188303531,-1.243677331116874,-0.8112152245218138,-1.8745547623387082,-1.5785915389344627,-0.27648370802706806,-0.9370501869978061,-0.9286524401863921,-1.4842032359802146,0,0.0,0
16.5465,0.3491830995897181,0.4490665475652213,0.2135574900836571,0.5430455166582364,0.4963351022684555,0.45763283988106956,0.7271295589573691,0.638887927344131,-1.4379900345242165,-1.2695426711890732,-1.7017358283339914,-1.1440155501436586,-0.6570892657132016,-1.1225832472710433,-0.8774998046311667,-1.4702357913561586,0,0.0,0
16.6465,0.4473849419057843,0.4508853100926731,0.36001805067635967,0.7015183123262044,0.2771925328050208,0.49328664708975545,0.7591316259714691,0.7088856097316718,-1.2529733538921803,-1.2828703300999178,-1.3676000702902078,-0.7394513388037725,-1.002591045951638,-1.065487560758682,-0.8238102945220542,-1.25535165541528,0,0.0,0
16.746499999999997,0.4627643781631231,0.397498307607526,0.37551323057911035,0.546743369737315,0.334369657691252,0.4980638840129162,0.5607658825102395,0.6264341282698014,-1.218591340671259,-1.4483215742354654,-1.332502282851623,-1.1980692607744714,-0.8878860854172665,-1.0514597398414471,-1.1181678073588994,-1.5149137568062636,0,0.0,0
16.8465,0.354758386091024,0.6149893237369153,0.37069374405081024,0.370869199811351,0.378931731201828,0.4066978393864191,0.579523833978181,0.487407027014146,-1.4293334871968368,-0.9143228292882316,-1.3410556188118343,-1.4966759787209074,-0.7931453745605056,-1.216908358032568,-1.0977600822886258,-1.902910158472673,0,0.0,0
16.9465,0.3521534330471199,0.645317297282285,0.4313191706497861,0.7732516202961873,0.4291249618280817,0.35994692374906373,0.6141587331961313,0.6067124457055869,-1.4522421330402993,-0.763302171604845,-1.2082725357228312,-0.6844004609950742,-0.7028589434306756,-1.292473526063888,-1.0331872934655317,-1.604765190258992,0,0.0,0
17.0465,0.5387296421273116,0.6129337921476947,0.5400438704114882,0.8201824952595375,0.44012216193115333,0.6378936546853735,0.5526894321020198,1.06046160582927,-1.1157174403349794,-0.8348757641779193,-0.9960223027094095,-0.5591417763827544,-0.6807251436694106,-0.8892041242038025,-1.1098409701542673,-0.4037853294760255,0,0.0,0
17.1465,0.5999523651120349,0.7509716062793148,0.5503219745220056,0.49036536912192097,0.5249065293484598,0.829451376236252,0.6550921877458908,1.2585155917329136,-0.9577150942582372,-0.47680899441347363,-0.9802379640250328,-1.2843765508410863,-0.5537390507072009,-0.5079336404566643,-0.9676882343082133,0.22671893666827983,0,0.0,0
17.246499999999997,0.6278884955976278,0.7891749741189016,0.4546540109877167,0.6965773272467187,0.5888128372475585,0.7637699066690261,0.6218426153500105,0.9472468679467558,-0.9058711038819455,-0.384336876287789,-1.1671283734666418,-0.8835103252458956,-0.42520280926244874,-0.6243830120031272,-1.023098401380591,-0.7900603538685183,0,0.0,0
17.3465,0.9260661010205866,0.8011103322072524,0.4541752962691195,0.7814843742974056,0.9037059289106301,0.7708108793463679,0.6025899045554156,0.48223613624008765,-0.3762290950052298,-0.3555101133811952,-1.175064438702606,-0.6023590158501334,0.03780538073300874,-0.6061705533152117,-1.0499939568130083,-1.9732813207907858,0,0.0,0
17.4465,0.8920851589428457,1.0996066931427746,0.9451406703345432,0.5666634438243805,1.1209153290655758,0.7667874579798456,0.8423738547378355,0.6173552028409617,-0.5599740129660565,0.36247632768449817,-0.35337036931941673,-1.0608253647752053,0.5346714225536583,-0.6078957638277277,-0.7214140625373703,-1.653029078199228,0,0.0,0
17.5465,0.4555678343067766,1.1341315709218736,1.0140356491995073,0.8910505526904877,0.8643568515233436,0.6904814791136004,1.0384089473256133,0.84381867113939,-1.447055172583228,0.4940364705336229,-0.13843704486592595,-0.44774914754461387,0.018575772490577326,-0.7233348917321563,-0.42423218406957736,-0.8841338934462815,0,0.0,0
17.6465,0.6085944471256762,0.8038559892576903,0.6601898315229119,1.1325563396737404,0.778976850595952,0.7448057963121573,1.1011852249663852,0.9993775756358201,-1.142915466661105,-0.35182081161701584,-0.7780718343355035,0.2379921300220955,-0.1563660980125197,-0.6273899625620758,-0.3320746862002013,-0.4465232522039074,0,0.0,0
17.746499999999997,0.8705726018624976,0.5860548193275218,0.7429622394718817,0.9079527273495198,1.2251113688492583,0.8186141638380753,0.9170875056157531,0.8965904504604141,-0.4457438563354905,-0.9183838019965168,-0.6073647354658398,-0.34190839533332856,0.6862970880459709,-0.5049840796964983,-0.6340366135464488,-0.8495492109097039,0,0.0,0
17.8465,0.8798699101132054,0.5462942031048974,1.0327364294375128,0.595060061935408,1.1728253630622385,0.7360103848057821,0.5966680257102501,0.6277743549615944,-0.44013960910001143,-0.9979930396857418,-0.030143370563856756,-0.9792523288350509,0.6136996127893495,-0.6717679558996583,-1.065824730521469,-1.5468344451244078,0,0.0,0
17.9465,0.7305487273688367,0.5042868354666805,0.9301488764634362,0.4494502110284635,0.7386332455221086,0.487081154844251,0.6510682684407711,0.6679592766431377,-0.7418741029784645,-1.1420497393758715,-0.30370081865978854,-1.326668757107539,-0.127911245830651,-1.0921868558455956,-0.995118744434973,-1.3900575215459492,0,0.0,0
18.0465,0.7052290816496778,0.3759107584787805,0.5697011596343563,0.3806224906608111,0.7103963582321436,0.524608594059208,0.9925226937656777,0.6020747922679144,-0.77740607250597,-1.4501131912883358,-0.9215540639346566,-1.4629640228558694,-0.1704604072162634,-1.0382960666554895,-0.5163739143989354,-1.6191439221232127,0,0.0,0
18.1465,0.823906015431744,0.45986501989962203,0.5221857312163498,0.46916035544144147,0.7550706528456155,0.6161830940268601,1.1313971239733105,0.3642725475428506,-0.5594550046152461,-1.234448925231004,-1.0256327432916224,-1.2894721431473746,-0.07882755378178823,-0.85075486568114,-0.29256817216800024,-2.3282808562709243,0,0.0,0
18.246499999999997,0.6807111252926896,0.5927270101365497,0.4032674243401805,0.853569776597078,1.1616167291974884,0.5753333891684838,1.1133223112023007,0.39966694199881514,-0.8832923504512489,-0.8697802329470751,-1.2761425503285546,-0.5347374518898621,0.5628484762876977,-0.9187308650982153,-0.3273000212484524,-2.2522154509725074,0,0.0,0
