t_center,rms_emg1,rms_emg2,rms_emg3,rms_emg4,rms_emg5,rms_emg6,rms_emg7,rms_emg8,mean_z_emg1,mean_z_emg2,mean_z_emg3,mean_z_emg4,mean_z_emg5,mean_z_emg6,mean_z_emg7,mean_z_emg8,channel_count,frac_active,global_active
0.1465,0.42115799052457176,0.711967248877075,1.292304205426607,3.9361961559466114,8.184903350309485,7.459568936046253,1.3196463580877724,1.0622956649772626,-0.8780791592334118,-0.6565732707083534,-0.8262482090134832,-0.064940958507235,0.059189567680533364,0.6980563829309684,-0.12717182313232483,-0.11948814431737423,0,0.0,0
0.2465,0.9931663337568108,1.2959955663385248,1.8193201428923962,4.218647626656379,8.272840237707022,7.758934072966256,1.5089921062869023,1.0776324660593126,0.09069212300034767,0.13752409987167133,0.011270446283337182,0.3267087883881263,0.09167542022872043,1.0963490841028858,0.3766555815529216,0.039240390441199646,1,0.125,0
0.34650000000000003,1.0290798106152292,1.300907612749424,1.9876921539439631,2.428829738177022,2.9734522922705637,2.615505933984755,0.8839508955179608,0.45365723162284005,0.21295679468473774,0.17592425507777146,0.3545593180212356,-0.3285746295186731,-0.8052487048048533,-0.5280336026440375,-0.39008698295284566,-0.7366060628076424,0,0.0,0
0.4465,0.6477501657741035,0.916535309828513,2.028319057932783,2.6103229533757815,4.822604275089008,2.776835179835096,1.4677988296731077,0.7147491561661,-0.4635304592409159,-0.4223060628522849,0.35435604946277605,-0.13349954696302757,-0.3937954984461423,-0.43613447501154895,0.3457111775900821,-0.3231500983183303,0,0.0,0
0.5465,0.7289982114303373,0.7249394201204209,1.7667901318293104,2.2553142550250755,6.216945818314234,3.608639202936749,1.5851059450072023,1.6193901718566441,-0.32885463239645785,-0.8172656844643104,0.029504084835510626,-0.3553426259860867,0.0003477648095205127,-0.09072061132235837,0.5793944882185962,0.6626217973711532,0,0.0,0
0.6465000000000001,1.2876877375067197,1.509633092183743,2.4806585085171937,3.359333540657241,8.587757846010302,5.714110665470943,2.0216961314969235,2.0266588715241314,0.6316945000885072,0.19811511942735868,0.5744721488884741,0.09613160620276881,0.4333867031891001,0.37235171033119213,0.8521107443790106,1.4876474976671594,3,0.375,0
0.7464999999999999,1.3506162964057167,1.5552248408110312,2.3957698829207215,3.3614526664582165,7.408034218748806,5.288009008396347,1.9748253605044477,1.4058136762155267,0.8153618822915927,0.474430624647868,0.45433042411581587,0.1020985882746473,-0.10615061486540421,0.041606023835318647,0.7610801484186487,0.45307203900389825,1,0.125,0
0.8465,1.147224021763108,1.1744807730647442,1.4152184734671318,1.8199989097019018,2.4746269301768624,2.374357101349308,0.989270446872342,0.6409849643415424,0.42091769001968166,-0.105714549978461,-0.4041766148525304,-0.6008108482996143,-0.9266015639837668,-0.630630926238527,-0.19639479644067595,-0.48174111598137714,0,0.0,0
0.9465,1.034307876398369,1.2344702909912426,1.5634415055400448,2.712776308853965,4.513019158865078,3.5724062025533545,1.3469840423695292,0.7156048317819396,0.08747745606665312,0.0405356405764255,-0.28715099385158316,-0.2019685263994343,-0.5242457137332952,-0.18073680967575703,0.21526226395012585,-0.35438774864085537,0,0.0,0
1.0465,0.6404026629775282,0.6795420052520896,1.5528378808472356,4.238327065389208,8.988557111403432,4.214701997744488,1.2187355167997618,0.7585004879431704,-0.5744708364651274,-0.691228208300386,-0.20053115139854696,0.6666077069353414,0.5318712889970869,0.15699565842266028,-0.1443068968822771,-0.29209173873011174,0,0.0,0
1.1465,0.5230235540712602,0.6817714119525751,1.7078827476776641,4.265221342495355,10.432627860823878,3.9444791700388184,1.0978784981612308,0.986274520551102,-0.7345377292709291,-0.7439417179938722,-0.0587097614613494,0.7696452059672346,1.0456552354946609,-0.06338530315343024,-0.3173260324964666,-0.03494045828411962,0,0.0,0
1.2465000000000002,1.666738384327547,1.5603624985003446,2.501845409916248,4.887437036600589,11.011706618765794,4.945814206281113,1.7530997652560878,1.7037046715426136,1.0697899518896095,0.6047761647564441,0.649730510926776,1.1924303292364897,1.0912337159376693,0.31938641274110985,0.8502373789952794,1.2538625843002729,3,0.375,0
1.3465,1.9092545090032473,1.5946786978387146,2.3703512336917187,5.140113507571667,10.437537546532576,5.376307330924977,1.7863707285755002,1.6434639245349842,1.9007108669885542,0.7216875146384286,0.39249446617780015,1.3753419186973097,0.8488829215827329,0.5566383410947225,0.8542820014914292,1.2124833949542648,3,0.375,0
1.4465,1.1981733537933765,1.5266465960228208,2.1305373621511916,4.644823372049628,8.552276438777318,4.502498834975049,1.1524634240007876,1.1361148794034748,0.5406918928624541,0.4589892527963771,0.1843594385098873,0.9509164239612928,0.5117232881558594,0.11968469384371418,-0.15560248268339982,0.4095585562682803,0,0.0,0
1.5465,1.0500235830381217,1.6854131749377834,1.8967557063899665,4.314733593337194,7.480092832098838,4.06960381598695,1.2218746147454544,1.25095525219839,0.2966626481313035,0.8953576010938537,-0.14813350683218737,0.6216747267628935,0.23084127118036568,-0.08214477867460465,-0.028421576061010832,0.6051537040389369,1,0.125,0
1.6465,1.170623662349865,1.01587131043461,0.8637136230109795,2.545396780686138,5.027477921141326,4.325857275182009,1.5048209775077528,0.8555292376249939,0.6002967649780306,-0.26280521929818973,-0.8281006993433456,-0.3188246474486914,-0.3165127127506185,0.01810560396174412,0.47789658616761893,-0.35750596472045715,0,0.0,0
1.7465000000000002,0.9789059968829034,1.197512849975639,2.3672760302322677,3.6553353180613617,5.7468409478282725,5.478178543066853,1.3566171144406705,0.499312136061803,0.1420161573458343,-0.04988192718530222,0.3113762485044604,0.13192643860512887,-0.22012872057195867,0.5083982570881844,0.32166086906245595,-0.7591181072273528,0,0.0,0
1.8465,1.3758142341491106,2.1557168537964944,3.177099456608924,6.045767655490996,14.926590764258536,8.10010798998794,1.9306549259329049,1.2262481293677185,0.4774711158857109,1.4650578036446356,1.233920926191786,1.617377701136621,1.4147853706132718,1.4213127847444897,0.8678575493014329,0.31812773555227475,6,0.75,1
1.9465,1.339791273870969,2.1083576009442417,2.8224080831657195,6.338359216443061,16.684608381373057,7.286050440765536,1.9591209779756742,1.3816362710361476,0.38070526058528226,1.309759407940645,0.9765633508102728,1.734782058921954,2.0401331045566407,0.7594738415716162,0.8877514108611401,0.6413316369802249,5,0.625,1
2.0465,0.8486710747375974,1.560420858684863,2.1834808772614998,4.770148563360036,10.6390138184693,7.464461491890327,1.3956262154223904,1.250293560210878,-0.24087600296129605,0.7693710276004282,0.404542452646829,0.7887025076369361,0.8780798353664117,0.9681767306068474,0.2805747685367754,0.5607317448734824,1,0.125,0
2.1465,0.7955967283060944,1.5075211776559143,2.1472778904547996,3.7301519960943184,7.118934405776915,7.216790205142261,1.3767823809230748,1.2042138154600466,-0.4274494122243147,0.6642877762937626,0.3814066019972302,0.22638827007432238,0.14073566765717813,0.9667305209887225,0.32844575962243056,0.5076081147000131,0,0.0,0
2.2465,0.5475703651042612,1.3559062543074922,2.2235612093046515,3.2908987900884052,7.003974524363648,4.945908787115795,1.243438240286972,1.1376976820465308,-0.7326004596473301,0.40863844227781543,0.5813824422157777,0.054729868459989735,0.11587190398697776,0.297549419245761,0.10350679417598885,0.375452475644418,0,0.0,0
2.3465,1.0261091441017836,1.3563040773839747,2.5580080274135573,5.671635008528154,11.126944281104283,5.709495678163754,1.440577750256455,1.3673342374651503,0.25513731234591347,0.40684001402397457,0.8437558406505076,1.2213748274732237,1.078593479193284,0.7707879171253933,0.40351709726144136,0.7974219674786218,3,0.375,0
2.4465,0.9978949302002202,1.1421254782180814,2.39888256424004,6.023218509429819,10.185516410494351,3.9139141996625053,1.4314753848736348,1.1384043707217397,0.17658387014631674,-0.0024497333700470958,0.5278572404879415,1.4331136994088058,0.7206011145655752,0.04708425691103261,0.3850906290386577,0.24130084984505606,1,0.125,0
2.5465,1.6368490583306576,1.0821381395486482,1.6489538830647852,3.6996310788477307,8.8936083639165,5.1490406960961375,0.9107959211998015,0.9847832687281582,0.960073570356304,-0.06550998362471343,-0.0749047529155842,0.34480413554912337,0.5082214710480991,0.40388406577545655,-0.4717116543237684,0.007973580267852965,1,0.125,0
2.6465,1.9041415045084713,1.25504435007114,1.777124002518742,3.01120078877012,10.24667222849234,6.9526877831299165,0.9979301140435818,1.0311467476028489,1.6902565720444587,0.19136761489041126,0.07815437773332201,0.018923802304618664,0.870456177946024,1.0484393705301285,-0.3751558194707588,0.1426223601966537,1,0.125,0
2.7465,1.3816782850219371,1.0918709956030122,2.069007832207336,2.7371630930442974,8.663250779315586,6.314132054660525,1.4180410289086915,1.2148612973310275,0.8634381360875619,-0.11294384184235236,0.32161894421857395,-0.20342742934834906,0.27326458626662686,0.6883568370488061,0.36822540160046574,0.2835767423242976,0,0.0,0
2.8465,1.3735360880148804,1.1152370015762665,1.8622932015526512,4.411118210066064,13.094986462843643,7.840159825117645,1.6850367424711323,1.7517518844787336,1.0888439717155804,0.02078720628794625,0.013102021572648398,0.4849634119030729,1.165072439654615,1.4391616227792285,0.619687064245647,1.1280282362226748,3,0.375,0
2.9465,1.9755153687022386,1.8413342996093873,2.390524450750716,5.789603043107131,18.395286416131526,12.663491250769761,2.4989847171269,2.391071516275924,2.1508872282898714,1.1355480496304216,0.4967254196796057,1.4871516219276166,2.8287911691164056,3.4976777683502753,1.6709039880879621,2.199876756024706,7,0.875,1
3.0465,1.8595448008804012,1.8403192975577218,2.401537969693512,4.76974693677452,15.069461018548576,11.001634036514073,2.237004460172198,2.007022889575893,1.5835065964611212,1.0677609147842184,0.5616744792010325,0.9143815555929828,1.8742721677753917,2.3425583272052815,1.1649734236838336,1.25144260474306,6,0.75,1
3.1465,1.168389452329519,0.9632095341132431,1.1268932786854486,2.310924746699937,7.786966410633918,4.981612518527798,1.1714144486088878,1.0759245255286252,0.29473080757257614,-0.34462835751860227,-0.6787292926421038,-0.4456272665152218,0.410687224951072,0.48230331876546806,0.01958794539819581,0.08667063926249455,0,0.0,0
3.2465,1.136409762754664,0.6083524350547269,0.9351797238206181,2.4842493697375465,10.137361164327661,6.892904453995709,1.4983783360009408,1.1368036551429694,0.36675041244591733,-0.7858113803396833,-0.810922935438,-0.49687483645161756,0.6002590852607355,0.9717780606068849,0.5313473703335643,0.238457849130761,0,0.0,0
3.3465,0.9999442504919401,0.6975700923376714,1.409467369888183,4.576805422829964,12.872054907513167,7.104866471428696,1.6038629258246067,0.7822917739412026,0.17110397973863178,-0.5799227757344488,-0.3485011202705149,0.7174382762349216,1.2237709568223187,1.0461454988294183,0.6975107255687998,-0.2323244332474428,1,0.125,0
3.4465,0.7794825655227815,1.0903187667920562,1.3172327270087556,4.358604878339951,11.047272926232715,4.929995160072998,1.4069449728824068,0.9769043621460635,-0.23496041114253127,-0.10690552327620621,-0.46278569815203613,0.706033046888143,0.9727156544368992,0.3318250628542557,0.2830107589811716,0.06356070622199304,0,0.0,0
3.5465,0.5577942896945701,1.396120250367831,4.014710326924009,4.137166348080611,8.215201142518001,4.511772725981713,2.4460069373535167,1.2323529842377872,-0.6743547998039864,0.3978171800939009,1.5559038641679712,0.5184656053725507,0.6052522635202631,0.2777850353010613,1.5078329168696203,0.4764787053418601,2,0.25,0
3.6465,1.2241827147333737,2.2302582452239115,5.979610976578261,5.607232305216949,7.3038401334023755,4.970297578198926,2.3966114183133613,1.171045682021796,0.32425118297245265,1.6515086158677068,4.488256708921622,1.5585227396027708,0.2562538958766412,0.5767614999687115,1.4627597822922633,0.2871781843044573,4,0.5,1
3.7465,2.5624102600139786,3.1595876075858276,5.500236669052296,5.585345849083428,10.851055057152399,7.323970017842002,2.710959315237504,2.050398231182135,3.1308383489084854,3.3527792483413226,4.138065012739027,1.697620590920078,0.6049355569655753,1.245927265822963,1.6922001081947615,1.4935220430852112,6,0.75,1
3.8465,2.632364779826157,3.3475258665051704,4.791850839352293,8.601610154219541,19.49007342729364,11.021092492764662,2.8052360035279453,3.116105909041412,3.2770901994114836,3.395935888194915,3.0335342485092918,2.373814516918911,2.6402554357185237,2.4625306298252223,2.008722814586839,3.4909013563900486,8,1.0,1
3.9465000000000003,3.6708780593990786,4.268865655820544,8.046934976901222,12.938289082903928,29.903816643494302,18.877671261366764,3.421211384945683,3.2548955540636118,4.634725149528463,4.397401749044951,5.143009243935498,4.265540813503761,4.522641056489998,4.873359297774066,2.606521462823965,3.6916787400782387,8,1.0,1
4.0465,4.185453118865286,4.792570833702338,9.110412166835424,11.932273385921814,26.883667561675903,19.142330461415277,6.653068422272208,4.513094307251195,6.222295998378512,5.526978774567329,6.629222394156564,4.048039379742071,3.689752694739291,5.356901774407308,7.454157117166013,5.698815229574997,8,1.0,1
4.1465,3.1537787373876074,3.8874245400672165,5.694121299238042,7.076429133655722,12.292134590159572,9.461086438165262,6.608307070563958,4.3733709650718104,4.220726114309611,3.9611170505725948,2.8184082253130693,2.174454768884496,1.3841922902978177,1.458864128662717,7.39288779178215,5.355505769177028,8,1.0,1
4.2465,2.7591164320137636,3.349890302023075,6.344529023975432,8.89333757663135,11.579481184525509,4.220944961005105,4.182331513799321,2.8466862416549343,3.3356786501282314,3.1961451057666794,3.6459609897653245,3.56948624838012,1.319186649550733,0.06051155697269515,4.049319247806747,2.948101390132419,7,0.875,1
4.3465,2.2597611226958256,2.6741562481094765,7.012890536589505,8.421517401414281,9.953390939695643,4.80118431899366,3.179468025777059,2.306746455727212,2.5283564907589553,2.146609152870175,5.225104611593858,3.018676883586232,0.8536965242056663,0.42079948955913166,2.5889434942608,1.7330306170870213,6,0.75,1
4.4465,2.750600438294863,2.8090357938525394,4.764958654766136,4.064678008483986,8.64622688405529,4.142113708008099,3.1215027833815903,2.0442300277381835,3.4072036167920228,2.2852006708084627,2.9473557015694998,0.6066353723824042,0.5185904674222409,0.016287713722735762,2.7237768381085004,1.4558295601771554,5,0.625,1
4.5465,2.8778441921998907,3.942413808428913,5.784794502549568,6.357363122030618,13.323875473345593,6.328272962823915,3.1886986973476086,2.3576544478239336,3.196794797192797,4.068536742263227,3.5441595835216346,1.709461492409924,1.7277584175183442,0.8613472352612898,2.6962627862353368,1.9831939420438003,7,0.875,1
4.6465,1.6446390717434605,3.3676937413783157,4.916574314643213,6.122501411596337,12.04346482300419,8.426263706084674,3.2062029777708476,1.7669983870862167,0.6447366130656063,2.738714396610712,2.460714827024499,1.5873400954596673,1.2406580292469682,1.7950454612920075,2.25411531310762,1.076522184632745,8,1.0,1
4.7465,1.2643763222920907,1.8796180982586983,2.677430550653404,4.682261161996719,7.819212139144452,8.636472461701226,3.22232072046157,2.229929596051495,0.6206366294813965,0.7632861141256384,0.86175870680833,1.1284983809243223,0.4047845156946639,1.7200701970166616,2.423501464352412,1.8911218116440167,5,0.625,1
4.8465,2.297080627883761,2.1866779421464955,2.9492684849374355,4.295087379816752,9.529370788114266,8.98524006140322,1.9027012316885032,2.1972045654695638,2.5742869911754265,1.3495900547273425,1.2751331573826075,0.7701104249754391,0.7319489152963267,1.8267485061144404,0.792561929703697,1.9630773912505355,6,0.75,1
4.9465,2.512671259198661,2.694976864687439,4.668037987557266,3.6674348755384245,7.824529246857861,6.9355189642918305,1.2049331715262452,1.5327012218264078,2.9792974589899366,2.4041786608398352,2.967029822206245,0.42254873164056084,0.13312898101766218,0.6945318370577357,-0.1491796327757993,1.0370194152073304,3,0.375,0
5.0465,2.5044381801124818,2.325957665620663,5.290527412657927,6.116447453439737,7.329419339736943,6.036765128603805,1.075866358757739,1.171183821077872,2.759546174269974,1.8529249496927906,3.567699903395615,1.531943438713715,0.10327817714462913,0.47562262746729994,-0.4649010666419898,0.15705586536877247,4,0.5,1
5.1465,2.2349795272744206,1.5621569510481983,3.8869034605443376,6.8963540301722555,8.530503304480574,6.86532487068887,1.2891572994208325,0.49869895741954434,1.9263945541158238,0.4015124244775751,1.87967835985519,1.872415750772754,0.42326227275781053,1.0301326389410805,-0.07323581610860554,-0.6560634975147718,3,0.375,0
5.2465,2.5375218704761964,4.095271972527709,4.003990144638745,5.581642258774634,8.175909214281308,4.715720330172088,1.8710835419236806,1.329742423731664,2.277251394251511,3.1651466503285706,2.227596410859891,1.3399380947515176,0.4179807741242685,0.21643279087373965,0.8721563053331134,0.3905073313889549,5,0.625,1
5.3465,5.327247633745485,6.640303299048237,8.447723875750016,10.069796541622384,11.209014098555453,6.715689148636802,2.6809441987607117,2.977159077669771,7.165633654934507,7.605896523035267,5.943243926868653,3.2296266984551005,1.1297193282525833,0.9120564245724916,1.9392671577399632,3.0463371899143237,7,0.875,1
5.4465,5.045499967492974,5.720638614644802,8.480313221034015,11.178151410539497,14.217155827249746,8.505030749520097,3.2393425693121913,2.995144504070076,6.44480953124017,5.6494654105077515,5.792215884318007,4.302206993581979,1.8938670559798083,1.9041337706116008,2.9236596091712705,3.1421101524954502,8,1.0,1
5.5465,2.7191640725618416,3.7652837919148823,5.616151383174707,8.170920099487386,13.143430073607082,7.448973827030591,3.6397274356901934,2.1885624843248817,3.0270675528694593,3.3009759964689676,3.6793477793402203,2.9667498600883353,1.5759936295739263,1.4109382626493914,3.4261776906312105,1.956457202335852,7,0.875,1
5.6465,5.862635075420564,6.304514988247718,8.130813582754305,9.538328125718254,14.525933692183324,11.010520900200634,5.526294423825014,5.881837363923901,8.002143308885472,7.023265035401084,5.948520214458689,3.720035580757582,1.845554787099146,2.5185559330308216,5.574618393647933,6.495727566427662,8,1.0,1
5.7465,5.626269878872247,6.164155272304133,7.205617581003369,9.988390299850488,15.694485982714408,12.241078351439997,5.992232122494265,6.18060494697932,7.08559148132719,7.255162601307753,4.261694028666558,4.018987341988028,2.2437927067899026,3.3776885777985264,5.958020024627876,7.327618060802421,8,1.0,1
5.8465,1.7882200045374703,3.2776506000895593,5.454359055750669,8.100976372042371,12.249820398810263,8.656356977102087,5.333491875326208,3.495461109207812,1.2755234412283505,3.118534252845979,3.144306468200688,2.8324809452152904,1.4073495955693291,1.9280735210092268,5.224228470859989,4.014571461735365,8,1.0,1
5.9465,2.0785316619923626,2.30289399754824,5.268693424178165,5.4889089824328305,8.245393431228125,7.708172059576016,7.136566945643556,4.736807733496807,2.0836261738615307,1.7640862183752335,2.984682235068862,1.2100495812862266,0.26397655726541164,1.522794707778791,7.473353357913188,5.510702841185451,6,0.75,1
6.0465,2.745548005365578,2.7655121306565964,4.26116574786029,4.395267685237913,7.480023055255998,8.936141855203696,6.495461640322081,4.67150104778468,2.92814798229976,2.3147578585964297,1.984714065480495,0.6764407739315232,0.16176254444380367,2.114218247382317,6.271628832664155,5.08769329805269,6,0.75,1
6.1465,2.8709769809501706,3.9548965466707213,4.988630511576181,4.849279114156638,8.140450458132692,7.670656714010425,4.492902932603337,2.8604072432860836,2.9196600171825344,4.055650620880837,2.7815350568400867,0.7755953632555387,0.44778035709339614,1.3309666140664347,4.513598086883776,2.8455880152388686,6,0.75,1
6.2465,2.3483139002839364,3.479916136116974,4.368250496902238,3.6809335722051104,9.354942618531917,4.200478662888361,4.509527436991655,2.958212202207795,2.431538068225119,3.1919799180595625,2.1517924750643234,0.12323332623462967,0.5980652100786237,-0.041101946630877205,4.795481738156114,3.2823209818767403,5,0.625,1
6.3465,1.4895990520896079,2.0301438736936084,4.681508478788812,4.839649417375362,10.418092004771543,6.935254194358849,3.531819032663933,2.7296542572023856,1.1874987108285295,1.3644555280917061,2.7149082162590297,0.9730601687772956,0.8381416665603553,0.9980720253923289,3.636841881447493,2.746329781798344,4,0.5,1
6.4465,1.0648714042336713,2.0615449570370448,5.8508532788945855,8.064928567937734,9.756114111777986,7.785147435414121,3.1044462219482303,2.0437978717059706,0.3065356511957201,1.348284875460277,4.25004095363582,3.014325417386741,0.7919788358460293,1.4637189873514946,2.7069733383020202,1.3228224773866024,6,0.75,1
6.5465,1.0932441401181927,2.9872417369822384,5.182964178137554,7.005741808512053,8.683715761183404,5.125147367301148,4.013091793507081,2.505782816324638,0.20655231210497488,2.8299471854040767,3.4692191215924013,1.9577800375855,0.5286280255571227,0.33642446272072357,3.6750298026719666,2.151729009796681,5,0.625,1
6.6465,1.4246578368531144,3.163504947241861,4.20051107919665,5.765225312990178,7.6479152710539555,5.268052337227121,4.218102654070627,2.500414476809403,0.8386898536297245,3.175780865022549,2.3760211979229298,1.191338617003369,0.1999124357307545,0.18810562970664055,4.031684220889465,2.5165767492642503,5,0.625,1
6.7465,1.4561962456906101,2.395951082146532,4.17999622033099,6.060430920707654,8.12969482448039,6.041358385819922,3.1594450364847204,2.4885457176954495,0.9351993482809455,1.7404343146451766,2.2320372462912035,1.371347784222169,0.34469402611359246,0.5568716366601199,2.3518736688964665,2.359595260831844,5,0.625,1
6.8465,1.0562330460462581,1.6662337529603843,2.7519397670283863,4.623818668844515,9.570701132306949,7.444022611921364,2.6609282109545935,2.0761836756792107,0.16653846852831922,0.4564305312243422,0.74020340341928,0.825452127537013,0.6461189312054614,1.300557244450221,1.7507359143730092,1.3435570542712065,4,0.5,1
6.9465,1.2864717658583442,2.0674348076268867,2.9473671594075945,5.613331799146144,13.667197659380056,9.045525884785395,1.9291642469910795,1.2235318586110324,0.5088108881988912,1.1790122009914759,1.0323031284946471,1.6062850799033481,1.7617978248418573,2.2686715696516715,1.1062590117679947,0.33797959176502906,6,0.75,1
7.0465,1.2389201783597088,2.192102847875058,4.070383094584861,6.243684268184298,12.697001864916437,9.3642708374384,2.8868219203291643,1.4556428311280931,0.352504977123967,1.6275213877135564,2.295566888327488,1.702143465424719,1.4116184012711523,2.5773383214864314,2.4229271914194137,0.8631728879514189,6,0.75,1
7.1465,0.8843073653951407,1.2911384173112435,4.284048503120864,6.31896772304023,7.78414434292419,7.3127614613019665,2.8953099789295598,1.3344842128397245,-0.04959749388019349,0.29721172476008495,2.3520860902751384,1.5951138324023342,0.03642407721546942,1.061689285863263,2.277597005152297,0.650656219819713,3,0.375,0
7.2465,1.1855420782033053,1.4685666895449618,4.133680490700733,7.737474414605877,15.066179437978922,8.444130595394528,2.4393209127765374,1.530038518840596,0.5958435595821241,0.43626320238210936,2.229840789716015,2.7667552677010976,1.624664286173659,1.1264467446435544,1.3882924612375616,0.5283937404218507,5,0.625,1
7.3465,1.1519556059572824,1.215018087746139,3.3758517898770557,7.247909968415059,15.035838037388716,8.638898289277453,2.2721324259150393,1.2564699537911137,0.3826611294918111,-0.04821681459049195,1.3610806767090589,2.2246872252328056,1.726080175377827,1.4514200570251647,1.0551179599011407,-0.06822938324349874,5,0.625,1
7.4465,1.3393218942457263,0.8489694322321854,2.4925183580709875,4.556487277205863,6.0288679731016845,5.078863525709643,1.3137865469982837,0.9736299142334698,0.6960057135725737,-0.4129298067621625,0.5271256858891191,0.4430093004211048,-0.27256596048048365,0.14329634899814547,0.06998863841592223,-0.05181269321571133,1,0.125,0
7.5465,1.1547497327723484,0.7732466222712729,2.0758657410887813,4.228146914351311,6.817476974427167,4.7273940531359395,1.1201240231475225,1.2173191648240393,0.21309694481187105,-0.6165962094053231,-0.009747678493268746,0.28863920748079236,-0.007349601055831558,-0.06564935654572568,-0.45580363235408433,0.5153400994095986,0,0.0,0
7.6465,1.0319444795336266,1.063682231807526,1.4506757150620324,4.916462436777233,7.921285869711972,6.370039454881466,1.9636082939484767,1.5885530469003384,0.0035201079405438886,-0.4537687720135971,-0.33780882010079305,0.9258220656933264,0.4166050041060528,0.8564470917183588,0.46860057904076524,0.9628581087024404,1,0.125,0
7.7465,1.3886463616318205,1.4156068269056388,1.443617095583535,4.495774962832269,10.838287211628911,8.72617421249926,2.7068566636370845,2.0805139050018653,0.7392954730285465,0.2572120110057548,-0.4582169588806114,0.7307470546646405,1.1306722623074286,2.1582904309322277,1.8127922840169257,1.6650983286976675,3,0.375,0
7.8465,1.0569103550366716,1.0790780926972194,2.657744968415212,4.796412155255857,14.497463066653493,9.451615650785177,1.9458134538373102,1.6546619886953662,-0.08393374423870253,-0.19324182408055976,0.42672903240189364,0.7671542308951124,2.048456520925778,2.1158370794656944,0.39410289078368366,0.7837748542978648,5,0.625,1
7.9465,0.7034567911340199,1.0026529578171839,3.0065060454356725,5.678721940940938,14.487004497656155,7.595453408059539,1.2518372293627396,0.978427870719964,-0.46139573864034167,-0.25319340162123466,1.1276126979381753,1.3628549985179876,1.7148642340511027,1.101123483272255,-0.10576905583121468,0.12160911731322259,4,0.5,1
8.0465,1.1691809603456333,1.868170731724913,3.8160880443706584,6.901962523040721,11.614523383254934,6.19651193413252,1.5797109529217037,1.2298560788527844,0.42587089085152463,0.9665596520258856,1.950671561242774,1.9836169144795612,0.9265948300684633,0.7276037237770437,0.5347602989594491,0.42223327954683254,4,0.5,1
8.1465,1.4312626308938774,2.4884874860930917,3.77115386642439,6.337302547901597,7.773033909615904,6.490317800539169,1.823701363628801,1.962089486849909,0.793063198259992,2.042401573884762,1.8466562025445117,1.6033900997020256,0.11900519253179744,0.7591202339083692,1.009840973138352,1.2556513911360985,5,0.625,1
8.246500000000001,2.820831430722547,4.324403316962236,3.7226179701589874,4.538365800543768,6.288810133361114,5.663447737289626,2.06855998092226,2.213132710851617,3.124565784493989,4.603049359006399,1.6064968874144752,0.662097205166024,-0.10222112646769117,0.3662090636188282,1.4335120520841615,1.9782849802208633,5,0.625,1
8.346499999999999,3.06148199676741,4.7059223327105535,4.7776064814579255,6.398051965458874,12.832271112728675,7.758630304805753,1.748072504015508,1.642121316693326,3.7058788650217322,4.8453942598941,2.8328327417662944,1.561743171504837,1.2696997467170235,1.1699739605875141,0.8231755401526946,1.2131562159005873,7,0.875,1
8.4465,1.6741026819171787,2.7147384509472,4.465537521893775,7.069180735420561,17.176506826260486,11.546326594609152,3.44559564792208,1.9647320924344083,0.8243737828177186,1.1831556638246552,2.3486924951603028,2.2181738464706258,2.5372140469037907,3.0219113831875832,2.5489186083950455,1.492467159695836,8,1.0,1
8.5465,4.4768086981618485,5.484796914991911,6.766993942454402,9.392014900482282,13.323663054827566,11.075557354186813,3.364114351068761,2.6201679206550397,5.004107558446473,4.837999011543086,4.294879443856292,3.5622146517202693,1.296691049855432,2.8827784708879456,2.200816328489458,2.442929937546056,8,1.0,1
8.6465,5.2749828030017145,6.408750132482647,7.483127634439911,9.07382941189086,12.682873758138701,6.947052434681951,3.5054259332594957,2.825718704154174,8.30211864464688,7.717770000020156,5.546343990697436,3.1864342575544202,1.0741140089647667,1.1532102043707346,2.6409844051377176,2.85681026612954,7,0.875,1
8.746500000000001,4.33455827558003,5.881173140395111,8.031875353220071,7.73417354471723,12.30369490573344,4.701410172873943,5.900854382047499,3.983932429920031,6.908851411062301,6.598153282631676,5.816566576309765,2.496406771650969,0.9401826411499554,0.18375013098259962,7.069016281508045,4.916321952631796,7,0.875,1
8.846499999999999,3.8573315589461696,5.772790339487921,8.47434444622333,8.669621532484808,7.9495974066360455,7.513990356062409,8.873186604023124,4.293514550863309,5.586835259653941,6.551031827642573,6.400778645723182,3.0787504808272086,0.2767847468828076,1.1342453973983344,9.50894904754571,5.526193885103855,7,0.875,1
8.9465,3.576347966141795,5.53251603923343,7.91019897677653,8.462755338128423,9.976994088617117,8.647364057389533,9.736320617550978,3.9657422586273094,4.546138201770761,6.266064112214988,6.000242869578329,2.5746770333607274,0.7554218752413722,1.7949690423705242,10.29406688075861,4.55989744020798,7,0.875,1
9.0465,4.082964316404158,5.611551882628379,7.310337079577894,6.874958833180893,8.824266357570373,6.182678885786918,6.999481551856047,3.9272940779783783,5.132995172042376,6.126661247441665,5.447000010756067,1.5765710357378324,0.4927435232991577,0.7822668168163938,7.393157880060743,4.448585815533214,6,0.75,1
9.1465,3.7007865191989113,4.046619471935088,4.883128765411074,3.744060552179056,7.920339337576929,6.551151420916278,5.177427575641047,3.564575681183514,4.422655273686458,3.8499039564675983,3.113654529970556,0.3839597245522389,0.3294526439380976,0.7861028378153786,5.254907222900813,4.032003861486772,5,0.625,1
9.246500000000001,2.5743509973802516,2.742104689690608,3.324138193362105,5.418508317191943,15.41422935519315,10.042797948901027,4.913099333620028,2.9520810201343206,2.442027242991787,2.1457507833722134,1.2946131216911974,1.162498822550723,1.725369231520307,2.165305109936111,4.332041201578006,3.00450620040834,7,0.875,1
9.346499999999999,1.3287002253516436,1.5564003789857217,2.334913172784251,5.069350356736715,14.520687820160873,9.308646009432524,3.24761666337278,1.8412480196206136,0.8371156327036025,0.42474049993353513,0.26301850461902204,0.81166215869812,1.188688983122736,1.9859468570320573,2.0939219474192177,1.1622861760860765,4,0.5,1
9.4465,1.0212506500624592,1.1293486297118693,1.8630032715084002,1.6243468809862252,4.484876698363528,6.218501351866524,2.4536922687209755,1.485336688564122,0.18065045456824083,-0.19646960203584043,-0.028183383989224837,-0.7692543248990389,-0.4554948194223368,1.0477955365543552,1.0857863406417037,0.4881380049083029,1,0.125,0
9.5465,0.9281674996085494,1.2108815537004,1.8723636208962342,2.7513763420014214,7.175763959850242,5.8344357325117056,2.1360224564281842,1.2115789551056495,-0.01620607592128293,-0.03928512872130611,0.058257550296346945,-0.23953402385246597,0.22643442677365858,0.792727775527705,0.8944922674798188,0.12829410226087382,1,0.125,0
9.6465,1.4086916368478897,1.0085069727767502,1.349379684697593,4.538449330198443,8.297980395573406,3.770244259269543,1.6149443425419658,0.8458295503514223,0.8789305741672044,-0.38830415560700987,-0.32001386827326395,0.9610375952521295,0.5185819611679121,-0.08704792543049544,0.43840250009873166,-0.22248041582880326,0,0.0,0
9.746500000000001,1.8689742165534184,1.3456715166052422,1.781015233145927,4.006273697540179,7.87233981946921,4.316908805979174,1.542661551335567,1.1342566431923673,1.864595720696724,0.20686965520418674,0.029773487076958215,0.4812494513638081,0.3867425819918028,0.1068312407538953,0.4800330822475712,0.4114987113286718,1,0.125,0
9.846499999999999,1.9494170277001195,1.76385464188631,2.1725723516876485,2.26452978842521,10.943955087066584,6.3954840467758896,1.5650487981320031,0.9654272627123164,2.020477184324447,0.9698365673317033,0.46574614922881546,-0.38214770560396943,0.842868839733205,0.8922764243251717,0.5796113532614711,0.009144567523429702,2,0.25,0
9.9465,1.4689476976498035,2.115391718005551,2.6372632888666594,3.8508349988789887,11.944548935505209,7.492534437458855,1.325777656527543,1.2453629593963877,0.8826321708080269,1.3480507964884547,0.8338689178372448,0.23781525079649404,1.2341123317834768,1.4502506737037897,-0.00022156912461371802,0.3258622291815765,4,0.5,1
10.0465,1.0227075236564338,1.6998263252276398,2.719358812238858,5.944236365617951,16.059295633509834,9.665107544485501,1.6677790795173684,1.4789991017744166,0.10614086382340139,0.49573829609555403,0.8952167094390195,1.4776408150377307,1.9077999061199835,2.1047048448631367,0.4425241553290416,0.8922623742900584,5,0.625,1
10.1465,1.0232838724945232,1.0410343398941635,2.861917145212607,6.56556764755284,20.045373039852528,11.21607732776799,1.8184973323550464,1.4288314560232287,0.09102494281046393,-0.16866050163233567,1.1706334285218736,2.120713757932846,2.428036626041073,2.1884230365518587,0.8403712138153564,0.7316522353639424,5,0.625,1
10.246500000000001,1.3746439377335653,1.1265493877255306,2.7404629140185985,6.499418544087042,18.872339388937544,10.501286250323684,2.0235834062739,1.4195290551094808,0.5981945876286655,0.016479337954473424,1.0110958580705498,2.217948862149903,2.3734937581162447,2.1246896142845326,1.0525608064648422,0.7196796844260396,5,0.625,1
10.346499999999999,1.2972360823147497,1.2736667438470182,1.7350786624497492,5.688185889805268,13.261199495710526,8.004371888292857,1.7481154205142861,1.0704749874766697,0.37467610055598827,0.12064133210334281,-0.06335901760537427,1.44089023117155,1.2508840495858038,1.3785110483776633,0.5239719725638652,0.19409404456282783,3,0.375,0
10.4465,0.760244338256895,1.2956366628564089,1.576685906037625,3.6292469863139494,7.17318626301371,6.726945323451606,0.9993535294111262,0.8410058735821246,-0.297741012084144,0.17901769908723428,-0.14712373800863213,0.13762316355481286,0.3090134724625334,0.8683187029837969,-0.31154037245884636,-0.07555000818990401,0,0.0,0
10.5465,0.7810619224623553,1.0764883341162768,1.743895595676418,3.5188229836111176,9.87298122211007,6.423012251267495,1.0539309532371928,1.3998631576642964,-0.25964564403925267,-0.06507746302714422,0.024810605995016013,0.3883815667990404,0.988652907645461,0.8088959013695161,-0.32377227043745976,0.6671539194792812,0,0.0,0
10.6465,0.9826879221614628,1.0811530506689113,1.7260762708376287,3.585669502016268,14.868073876674806,9.344362156878638,3.5371142767447505,2.0185049095602987,0.05996520609604164,-0.13636362166662544,-0.004773043238424381,0.4889886815840846,1.850228662294377,1.7200384856174935,2.475450875688275,1.628998567703519,4,0.5,1
10.746500000000001,2.1157254436129405,4.164991376804188,4.7673558234794005,4.0436092574513305,15.176047656338293,9.860917952001456,4.438351548330522,2.8597297092119542,2.318372242976926,3.263906799088713,2.343093722758198,0.4475358726314261,1.8983677002892267,2.0152643182604515,4.8178311190558984,3.0835914011184498,7,0.875,1
10.846499999999999,2.5946542381174136,4.995979663864488,4.822822538827857,7.090202169603606,16.28483232163857,9.279986860955761,4.685931701740959,3.3253490447063525,3.1644136564914387,5.451240494239243,2.3491554930824208,1.7618910238886443,2.3080198848645126,1.7849587007027654,5.033620226455043,3.828970948173016,8,1.0,1
10.9465,3.2202400691004853,4.891276952989139,5.174820456511354,7.363065754501162,18.006862424058287,10.565774465459896,4.3292098050221695,2.6796608198494978,3.886539619677714,5.396817766461514,2.758569041594151,2.1261167443924927,2.729234875242223,2.3726952499307963,4.134498748314828,2.466023824244876,8,1.0,1
11.0465,3.5147443224358206,5.845959187523706,8.871563454528061,11.12126072709345,20.842331502048236,11.84938422328671,4.446620424960526,3.2270560979197986,4.8028184980404935,6.755467325110511,7.151125822102299,4.181779026405457,3.196199573573781,2.8184593687339095,4.377053423724062,3.3868694290891157,8,1.0,1
11.1465,4.062905337788488,5.256332254362798,9.374426767571322,12.43259909898379,19.12462579398116,10.24764608595753,4.772878416900642,3.282336691262277,6.056379377789609,5.683589595861194,6.653359322125295,5.230068533564853,2.5821117767973734,1.8577799209414336,5.2128340707085625,3.3447918199536493,8,1.0,1
11.246500000000001,4.525720504543604,5.787892996200018,7.288129766747855,7.756455817455484,11.103204913843433,6.835989948693578,3.558045405889075,3.072977548498498,7.3422434123938665,6.862296119473392,4.524700799549664,2.46121028373153,0.8319429058568724,0.871309106666604,3.2978350292486347,2.9133392553128035,6,0.75,1
11.346499999999999,3.3935241977538477,5.737590261147579,7.423674891520776,7.9431752710649155,14.793569620783519,12.727871785486114,6.017801970922844,4.9087853068310565,4.531468642017238,6.975554547917694,5.677401523540648,2.702583161632215,1.6700542134787453,3.0299386842399416,5.644106387637154,5.439374911856899,8,1.0,1
11.4465,3.250002472999182,3.325688266758972,6.553968825438444,10.165955463090892,22.01906316472878,14.915611267248769,6.600270992050503,5.041334633745919,4.0358267988921686,3.0114270834826664,4.20584431855474,3.897067270282126,3.1734592471967598,3.7689179253905225,7.060500645891722,5.659164036077121,8,1.0,1
11.5465,4.389380781286321,4.609332815642366,6.897597892514995,8.444510105721593,19.02675306548939,11.873609352833247,5.508570627827093,4.750263537654345,6.553078722883555,4.1415384060633675,4.166505684716203,2.5325457124533064,2.0845291270783117,2.6698766265067464,5.450732481068941,5.406724209457004,8,1.0,1
11.6465,6.047996630086708,6.957341662472563,9.830499793725002,9.236467426431995,10.12080128805792,10.864223548274277,5.1195657046487835,4.7296218106085,9.803596080604777,8.343796681771607,7.841339824784249,3.262079123358597,0.8517845580715605,2.5219818539426297,4.562430032953347,5.6036657073619995,7,0.875,1
11.746500000000001,5.13849861016047,5.661550715284021,8.057837338449348,8.723608326399239,10.526064316471839,9.993487246530862,3.0483689667541993,2.9286905303947064,6.631797504582202,5.74978627466405,5.873137506228704,3.0214976020272726,1.062464446515145,2.0964570251390713,1.9422110237546784,2.3505361681705965,7,0.875,1
11.846499999999999,1.678834992408548,1.846176670069028,3.2286239814699793,4.0091441436561395,12.907200084883142,9.88390971600869,1.2142616758883034,0.6099335518537387,1.5192578903959468,0.8681715593522545,1.2176404899049018,0.8223636211496563,1.5357383540841085,2.432579090065634,0.058176124487182686,-0.615680660965067,5,0.625,1
11.9465,1.6910457729624806,1.3413959395024573,1.8599158016941224,8.032771914606935,22.886871432954763,13.208156115725291,1.910897498584551,0.6216539572564439,1.412218549034684,0.16831008963107885,-0.12220693501622225,2.5029881010904886,3.8424572997280815,3.971542156472899,0.8494379554440915,-0.6083199849449678,5,0.625,1
12.0465,2.026145460845732,1.0137386963687856,1.527608070777753,8.60396764932199,21.224163933390777,10.956582034822118,1.8155898679468228,0.8186973609266428,1.9473874709527172,-0.1940356924317983,-0.2703784373470158,3.0923052658751993,3.1121116624460847,2.5177917328326056,0.5658016522985849,-0.10870847905553402,4,0.5,1
12.1465,1.8470296220273934,0.5868122906258381,1.0978689997786486,4.452920706069059,9.02850152736702,6.5069051063400245,1.2859647062853525,0.6950079899850979,1.6205576664170644,-0.8421489228638773,-0.6727571639023664,0.7232639901389245,0.4978032820765021,0.8083540771093213,-0.004996405752897715,-0.3324278874536715,1,0.125,0
12.246500000000001,0.8924470931215212,0.392074095004181,0.8418016782405048,1.701797595916,5.50243076069407,5.30285414867373,1.2858087513928715,0.3047290032390131,0.12242882099141315,-1.2584709592355312,-1.1790156286564937,-0.9546948351495727,-0.5144545444970606,0.03623380781141408,0.14330941016205873,-0.8693421190244343,0,0.0,0
12.346499999999999,0.7780216010699124,0.03334706326800855,0.028659532376987183,0.21786541165517118,0.7937844401089093,1.2088460143042268,0.6306361481690848,0.2539870097312979,-0.00844444720551317,-1.6102279973157636,-1.6542266695027836,-1.5044250029587973,-1.2693092747252945,-1.0463889393429182,-0.5896616611287784,-0.9536656661781505,0,0.0,0
12.4465,0.6074025372031149,0.02626832699462386,0.021615338882547054,0.11421644627124466,0.4068841233308172,0.9298112985893097,0.45693804284004697,0.19015742436407926,-0.34258600386022175,-1.6170368607505239,-1.6573570404802844,-1.5436091130378653,-1.3440423366392416,-1.1333601106299818,-0.875901394956451,-1.0685667434679662,0,0.0,0
12.5465,0.4448660676832321,0.04404712716465666,0.025268531056983318,0.10303081025978005,0.19732422978596986,0.6728212666316412,0.29914400595967855,0.13354875398720334,-0.7511463620168973,-1.5827313710485342,-1.6517560531986653,-1.5466837840403957,-1.3901123631051713,-1.245147373072145,-1.1227041665596358,-1.1698706382812611,0,0.0,0
12.6465,0.3063634209012124,0.05468513659657572,0.026810351444519057,0.09401543441902492,0.0796848457270714,0.4628242582103192,0.17636404010149992,0.08705791900861302,-1.0476895434995486,-1.5632040097442579,-1.6499133679014555,-1.5525420459629555,-1.4205730826016127,-1.3395104385151118,-1.31639304693589,-1.2529587361967727,0,0.0,0
12.746500000000001,0.19405499800815615,0.05766401434992794,0.025857578127874987,0.08084845093506168,0.047322670503257405,0.29381629610713567,0.08621366241400395,0.05073531127635008,-1.2880366599081858,-1.5579365814692556,-1.6510112455057564,-1.561090032520501,-1.4263132028060894,-1.4155427428760128,-1.4608269674224845,-1.3180062773268097,0,0.0,0
12.846499999999999,0.10780818807133373,0.055205559110440464,0.023292016036967875,0.06600132059129238,0.08217491330320127,0.16383179030986603,0.031718830365324954,0.024160448745774124,-1.4734050562864498,-1.5621911513636115,-1.6539520473890956,-1.5706807295229794,-1.4160873775838352,-1.4742563852877535,-1.5356424109036333,-1.366440613681618,0,0.0,0
12.9465,0.046899964886509854,0.04939063769040162,0.019908473614165558,0.051206909174030764,0.10578362576755049,0.07175349908624491,0.03770206458426082,0.008969332149998633,-1.6053723381434637,-1.5721787390468867,-1.6578053058634377,-1.5802101480426325,-1.4092183352439966,-1.516275528235532,-1.5251162755743837,-1.388993617846921,0,0.0,0
13.0465,0.02155248902468442,0.041780790413355785,0.016155831621499476,0.037748245815949835,0.11382161659134442,0.03215773493139502,0.057935978118265015,0.012276199586065024,-1.6447335493976032,-1.5851801395469016,-1.6620657309838058,-1.5888509414709566,-1.4069892759999412,-1.5293136376310372,-1.4872074818734597,-1.3829746219414063,0,0.0,0
13.1465,0.037038259412831655,0.03356439475007791,0.012394034412086835,0.026307313513321252,0.1105487514477569,0.054909402122586784,0.06838252045604701,0.01819987054308543,-1.609884942324306,-1.5991542119102946,-1.6663180123591033,-1.5961876776018307,-1.4078749755686015,-1.5186047016498931,-1.46950912441665,-1.3705116970549085,0,0.0,0
13.246500000000001,0.05016350883337234,0.025679723949495765,0.0090446385999415,0.0169200312332229,0.099835058244855,0.07481377756215675,0.07008606105421886,0.02105641139097742,-1.5783355702310768,-1.612527542371288,-1.6701090916011352,-1.6021993603681832,-1.4107537581447473,-1.508521246352114,-1.4667019907926149,-1.3650512397968788,0,0.0,0
13.346499999999999,0.05527321158269578,0.01866926569601457,0.006288669874152952,0.00956514143949103,0.08497809326766227,0.08271510385095615,0.06571103424125269,0.021364898130294286,-1.5667721840021838,-1.6243847578351522,-1.6732309744189788,-1.6069422376656919,-1.4147235500898787,-1.5047602023940612,-1.4737698423942833,-1.3644737418397983,0,0.0,0
13.4465,0.05437162264129443,0.012733760453270654,0.004083885745447655,0.004371008378935942,0.06876184233709484,0.08154108631701643,0.05777076280856287,0.019922474680464295,-1.5687509414797056,-1.6344067931369377,-1.6757511113844694,-1.6102284523559434,-1.4190386298863424,-1.5053013492123761,-1.4865075717731662,-1.3671125742704209,0,0.0,0
13.5465,0.04970001649124058,0.007898105870198489,0.0023477057301397337,0.0021646046632619173,0.053184481534724035,0.07462157346403177,0.04824513070497207,0.01741550035180705,-1.5789612818502206,-1.6425766041270702,-1.6777824775236032,-1.6114039623398992,-1.423170235091432,-1.508480768827534,-1.5017107432128651,-1.3716672887122163,0,0.0,0
13.6465,0.04286376802691263,0.004224920595676215,0.0012672156137877586,0.0030965311916892357,0.0391113186991875,0.06440762744881576,0.0383852396311487,0.01443516123514258,-1.5938120963889293,-1.6488464407103762,-1.6788767061015875,-1.6108334036029288,-1.4268939865304764,-1.51314510301459,-1.5173866015106032,-1.3770554054193398,0,0.0,0
13.746500000000001,0.03502878798355234,0.0018181569518688633,0.0010473312958146869,0.004191545441829667,0.0268825774089076,0.05269490220762214,0.028982911040949157,0.011417418927185584,-1.6107488029145045,-1.6527527930947423,-1.6790028109974842,-1.610004749255552,-1.4301230288294549,-1.5184676060048792,-1.5322834876858935,-1.3824928503806513,0,0.0,0
13.846499999999999,0.027193590998439505,0.0012039346756394745,0.0012078759881624527,0.004768066582957844,0.016901861599244696,0.04097032521283196,0.020641003886532897,0.008606430216913593,-1.6276493542660662,-1.6535034699802784,-1.6788364495895127,-1.6096044762216613,-1.4327720314384336,-1.5237822638876932,-1.5454839920738246,-1.3875395179409742,0,0.0,0
13.9465,0.02013201243657591,0.0018928998804592422,0.00139492068571544,0.004717452860392008,0.009490319255848263,0.03035695829033191,0.013758880223782096,0.006111699841204512,-1.64282908857447,-1.6522832010156205,-1.6786507971245226,-1.609638846823578,-1.4347547203906001,-1.5285767503686294,-1.556353299767952,-1.3920122769236165,0,0.0,0
14.0465,0.014143901216412643,0.002429428560208636,0.00151872237891401,0.004251870424548308,0.004655909407026312,0.021318332003140206,0.008390401259246408,0.004015079083032178,-1.655703551798805,-1.6512541465943018,-1.6785175121453264,-1.6099498249870854,-1.4359847212385801,-1.5326581983518284,-1.5648674837227219,-1.3957639045449306,0,0.0,0
14.1465,0.009152094125600321,0.002597829370021177,0.0014995632435296229,0.003727981407700837,0.0028660377998273546,0.01379530321515182,0.004338068941943455,0.0023945281578868494,-1.6664280474386044,-1.6509491676030013,-1.678536271795494,-1.6103102012026063,-1.4363805128080693,-1.5360506999190746,-1.5713611087067503,-1.3986843422763846,0,0.0,0
14.246500000000001,0.005235189902458166,0.0024719970506761383,0.0013740748449807504,0.0032467906794225285,0.004075357433726409,0.007885932086600624,0.0018227496048259044,0.001233150144569676,-1.6749679790060916,-1.6511812241040644,-1.6786701961766324,-1.610648955582314,-1.4361094201053803,-1.538752058849336,-1.574947096822249,-1.400807162138056,0,0.0,0
14.346499999999999,0.002590178653817445,0.002232164142409526,0.0012612359073390829,0.002692280948850619,0.005096790568058322,0.0038162628001932072,0.0017939651115578355,0.0005490069267735474,-1.6804137820523795,-1.6516083771947003,-1.6787829579471079,-1.6110464364667731,-1.4357811949421322,-1.540537287130266,-1.5749669349023323,-1.4018824308813442,0,0.0,0
14.4465,0.001567754982787796,0.0019734479129965145,0.0011939114257883165,0.002078075169469665,0.005306589766578153,0.0021153618283995946,0.0025573829582132643,0.0005798881837899373,-1.6823450326068183,-1.6520663438620196,-1.6788294778028294,-1.6114863893485447,-1.435710716371055,-1.5412030435176762,-1.5735946733606219,-1.4017887202998716,0,0.0,0
14.5465,0.0018914807237486822,0.001659610890897424,0.001115666398755338,0.0016745178556805084,0.005165274674586334,0.0026344538620018208,0.003007788694130301,0.0008358922073913099,-1.681881317424782,-1.6526321372786743,-1.678893462042563,-1.611760815589835,-1.4357529805222282,-1.5410139716201001,-1.5727697061667587,-1.401294808568075,0,0.0,0
14.6465,0.0024626125282225524,0.0013093588709556466,0.0010209801947792061,0.0014838758980724612,0.004929181701151221,0.0035244440543771216,0.0031873350911590125,0.0009501114424330133,-1.6805543475813076,-1.6532554155534651,-1.6789901246776344,-1.6118244370835446,-1.4358258480180965,-1.540563400940417,-1.5724636335157467,-1.4010651413405828,0,0.0,0
14.746500000000001,0.0027668389769125823,0.0010215719058635005,0.000973295924944662,0.0013744643612383718,0.0045040576215363915,0.003987047099603176,0.0030926186659935343,0.0009586263841499527,-1.6797844714382615,-1.6537257219407544,-1.6790466346107007,-1.6118365823893408,-1.435957238948113,-1.5403242193704805,-1.572629064359503,-1.4010495183930791,0,0.0,0
14.846499999999999,0.002692900465077367,0.0008513274097664763,0.0009561372391946761,0.0012718899497923763,0.003794929698463755,0.0038983260437301594,0.0027299138398063057,0.0009237565284990045,-1.6799557960963734,-1.653954344139575,-1.6790643086829693,-1.6118633470301582,-1.43617613463404,-1.5403663536724406,-1.5732391232081198,-1.4011154660401375,0,0.0,0
14.9465,0.002462179524107104,0.000740201500904249,0.00094721052449626,0.0012487232175207538,0.003155881973867852,0.0035617855738875725,0.002297996257345246,0.0008443687391374846,-1.6805242395428104,-1.6540945184253997,-1.6790728137798658,-1.6118539855918141,-1.4363682740754724,-1.5405348683339182,-1.5739794661687054,-1.4012687921388218,0,0.0,0
15.0465,0.002262548779618259,0.0006516336513166849,0.0009307462449104027,0.0012456348466099102,0.002795432481993848,0.003239772332985218,0.0019509958362849747,0.0007142470198728542,-1.681029434380603,-1.65423227467878,-1.6791023812641046,-1.6118495777938222,-1.4364440415161355,-1.5406993772872561,-1.574593955228393,-1.4015184097105604,0,0.0,0
15.1465,0.002094414692165309,0.000634259860053161,0.0009518826377287045,0.0012653437356707274,0.002625607635613944,0.00294454295790428,0.0016809573855019904,0.0005782553705520558,-1.6814940831330505,-1.6542741610833571,-1.6790925954469649,-1.6118375042833333,-1.4364510234164234,-1.5408612737058949,-1.5751035971640988,-1.4017702740130842,0,0.0,0
15.246500000000001,0.001822440953994664,0.000635619386649894,0.0009524824475295465,0.0012678670654482365,0.002402574240502796,0.0025133489395834873,0.0013836199571632896,0.00048266638877871,-1.6821463859959116,-1.6542915468971555,-1.679097921183872,-1.6118343216841062,-1.4364833167510427,-1.5410949610285996,-1.5756274144066231,-1.4019223198905555,0,0.0,0
15.346499999999999,0.0015316863128302192,0.000625757589830365,0.0009326342722952175,0.0012588720535891048,0.0022104310706211657,0.0020610532864342892,0.0011189559545679178,0.0004191765113687112,-1.6826431671352933,-1.6543179878537173,-1.6791180852695893,-1.611837275528182,-1.4365045377019803,-1.5412927623059411,-1.5759550140307683,-1.4020049674144714,0,0.0,0
15.4465,0.001402889210121209,0.0006300453962734842,0.0009341700177208116,0.001255131849030729,0.0021861697073288044,0.0018367123546064886,0.001012602882037221,0.0003606853167244976,-1.6827740630015262,-1.6543226200899304,-1.6791209424609344,-1.6118417577572124,-1.436499088119917,-1.5413580120668327,-1.5760232591095567,-1.4020954213173185,0,0.0,0
15.5465,0.0013792546334168685,0.0006569751495680217,0.0009623861966640474,0.0012689322557523815,0.0022311568809093895,0.0017699363153419671,0.0009952061222924902,0.0003276647582346008,-1.6827049745499014,-1.6542932090874316,-1.6790984697489737,-1.6118386396462674,-1.4364840014684461,-1.5413468544893942,-1.575981582256097,-1.4021469732843994,0,0.0,0
15.6465,0.0013234107310480237,0.0006572316730425659,0.0009614121572692655,0.0012650448879765817,0.0022194509654074467,0.0016744646753342589,0.000965196327016505,0.0003171677008320494,-1.6827280362116985,-1.6542915166765058,-1.6790963005762043,-1.6118435392521588,-1.4364818098063763,-1.5413585858666539,-1.5759804014811394,-1.4021706777316496,0,0.0,0
15.746500000000001,0.0012433653004260917,0.0006280570396724436,0.0009295011288268945,0.001239271722477964,0.0021680442684131125,0.0015577681825021256,0.0009277572813417476,0.0003101785425810355,-1.682802446875699,-1.6543254903524847,-1.6791200219515658,-1.6118572256085495,-1.4364889192304018,-1.5413810287988352,-1.576001282701744,-1.4021871995436002,0,0.0,0
15.846499999999999,0.0012437844350171503,0.0006254658797626386,0.0009322066887599993,0.0012466473179125936,0.002189148168230002,0.0015551558286192916,0.0009392958317359832,0.0003110032067742111,-1.6827552439177853,-1.6543205660388156,-1.6791117562962046,-1.6118502119953633,-1.4364795918357829,-1.541367751900777,-1.5759665692660263,-1.4021902413575322,0,0.0,0
15.9465,0.0012615445507147631,0.000636101991050657,0.0009468555155576352,0.0012603875936367914,0.0022107036544645802,0.001577478181858521,0.0009506441601733464,0.00031749771177484097,-1.6827129980195912,-1.654301449390112,-1.6790993444900695,-1.6118465098237313,-1.436476787111691,-1.5413556795732626,-1.5759539554166606,-1.402186449636352,0,0.0,0
16.0465,0.001270090678219547,0.0006387870714541381,0.0009528333871407372,0.0012681025047636759,0.002222593067249913,0.0015887288747482415,0.000956693064412944,0.0003207127555177964,-1.6826845371165364,-1.6542862646596086,-1.6790876020944934,-1.6118417077074898,-1.4364743651440346,-1.5413478848573525,-1.5759460481602705,-1.4021801472487243,0,0.0,0
16.1465,0.001269583529619111,0.0006252821565475883,0.0009403588515720157,0.0012571568938237446,0.0022189284237576867,0.0015916776394991564,0.0009619765300634368,0.00031237459987201754,-1.6826538757324796,-1.654288099089211,-1.6790856372470382,-1.6118391703727561,-1.4364692196581132,-1.5413385911671682,-1.5759234464586023,-1.4021856890696307,0,0.0,0
16.246499999999997,0.0013137915223040977,0.0006368942914188677,0.0009618341977826034,0.0012868991950824296,0.002285047021730811,0.00165053415595653,0.0009967608332930396,0.0003141787203758991,-1.6825400824663723,-1.6542519872883092,-1.679048931936612,-1.611811981551429,-1.436447476221393,-1.5413073364839678,-1.5758597138709691,-1.4021719541877857,0,0.0,0
16.3465,0.001343074070363104,0.0006507885672719224,0.0009816604677979866,0.001310572537233768,0.002327490408639826,0.0016879259561902425,0.0010157237470009134,0.00031893941852341744,-1.6824971562785513,-1.6542308468299403,-1.6790310301892877,-1.611800879463839,-1.4364401823921797,-1.5412959646726951,-1.5758414009605861,-1.4021615494655366,0,0.0,0
16.4465,0.001393120858485391,0.0006778788358536866,0.0010204766262151145,0.001359696914157195,0.0024106361277114598,0.0017500916251403115,0.0010500870617734385,0.0003314201992334101,-1.6824225151731964,-1.654195684330564,-1.678998367619528,-1.611777561763824,-1.4364244925111829,-1.5412769719439257,-1.575805798752622,-1.4021424488835341,0,0.0,0
16.5465,0.0015138134559303364,0.0007378105282809688,0.001108957234297367,0.0014748570013091264,0.002614208198914173,0.001901622470693109,0.0011384443202662432,0.0003590123705822396,-1.6821932130043107,-1.6541042117608946,-1.678908617977591,-1.6117108660116088,-1.4363765748822015,-1.5412165181624093,-1.5756820809545564,-1.4020966428732842,0,0.0,0
16.6465,0.0017020974472514436,0.0008335534580082405,0.001250581842381532,0.0016608800983134327,0.002938608374790657,0.0021369344033496124,0.0012772333649146894,0.0004056622275086133,-1.6818459844521865,-1.6539663898291144,-1.678772669661026,-1.6116091129438928,-1.436303268010451,-1.5411251254786782,-1.5754931157942307,-1.4020255893753535,0,0.0,0
16.746499999999997,0.001861217210407071,0.0009181305807151365,0.0013753867895035193,0.0018258453780302187,0.003219703429523082,0.0023341235725200886,0.0013941831858999536,0.00044929664300245837,-1.6815592369184456,-1.6538462218371661,-1.6786546345837061,-1.611520307185173,-1.4362408736937977,-1.541050450121337,-1.5753378752522562,-1.4019602034584593,0,0.0,0
16.8465,0.0019545340737239115,0.0009697945355057203,0.0014516098628905305,0.0019273719317236167,0.003389112900840368,0.0024487151610039157,0.0014626820460745705,0.0004772839390007186,-1.6814476813804373,-1.6537953052889927,-1.678605043638257,-1.611482768754756,-1.436215594137088,-1.5410218734346741,-1.5752783142765707,-1.401930072691295,0,0.0,0
16.9465,0.0020760347006215777,0.001034457467251923,0.0015478957072049074,0.002056150859068393,0.0036077828608361293,0.0025988505424473056,0.0015529667122443792,0.0005115772630944499,-1.6812221494663961,-1.6537010032401176,-1.6785117121737005,-1.6114118382670113,-1.436165901045647,-1.5409632093868737,-1.5751550694046785,-1.4018774065174606,0,0.0,0
17.0465,0.002198263995055097,0.001098460466957739,0.001643650000596606,0.002184571599133967,0.003827354204414929,0.0027502211240606946,0.0016443161019067153,0.0005452795562308461,-1.6809315358015622,-1.6535822249995706,-1.6783934175635071,-1.6113216553424718,-1.436102047279508,-1.5408873973425152,-1.5749949705594322,-1.4018119745489173,0,0.0,0
17.1465,0.002132124714571288,0.0010674353484429416,0.0015974245313577766,0.002124282179901603,0.003717804618752211,0.0026663021241362795,0.0015950143007549085,0.0005314038231817118,-1.6810492936920192,-1.6536253879176115,-1.678436110291225,-1.6113531953548008,-1.4361257980206281,-1.5409188824049556,-1.575059479580366,-1.4018319760122213,0,0.0,0
17.246499999999997,0.001805051599137971,0.0009047012914538421,0.0013542035179630923,0.001801773313360337,0.0031512463865160647,0.002256591262318247,0.0013506560558818365,0.0004513378216136955,-1.6816970987782471,-1.6538796812739713,-1.678689013428184,-1.611544132410967,-1.4362638807242378,-1.5410894562340607,-1.5754158349388063,-1.401964580688954,0,0.0,0
17.3465,0.0014587514505115906,0.0007305258730379186,0.0010946116851736063,0.0014580092271268363,0.0025502919396878402,0.001823420002576092,0.0010927789789766666,0.00036501541621943316,-1.68236013676088,-1.6541421992716985,-1.6789497206384822,-1.6117409722612999,-1.4364056525145554,-1.541263800063539,-1.5757800024731479,-1.4021025671872442,0,0.0,0
17.4465,0.0016771383637405172,0.0008368973692996935,0.0012562245585453686,0.0016757508969204163,0.0029350136506675444,0.002096869078199413,0.001258855415448814,0.00041809401785228837,-1.6822021002966172,-1.6540835074538802,-1.6788894023441188,-1.6116941164889727,-1.4363711538167931,-1.5412221083686013,-1.5756900545055368,-1.4020716644212172,0,0.0,0
17.5465,0.00301533158079242,0.0015046020760638463,0.00225836392484842,0.003012331816257012,0.00527617028135254,0.0037700567124856477,0.002263151167748054,0.0007515158751278875,-1.6796575861584382,-1.6530845076350666,-1.677890444331276,-1.61093467379889,-1.435822954138767,-1.5405532278859584,-1.5742818087322874,-1.4015430785441065,0,0.0,0
17.6465,0.005461989870476409,0.0027279273844167183,0.004093095302634722,0.005458212394515581,0.00955666491541028,0.0068285104997675575,0.004097863937291306,0.001362952478207823,-1.6742437737446254,-1.6509521219197614,-1.675760720358653,-1.609316950378062,-1.4346567503035832,-1.5391305472361583,-1.571289613855302,-1.4004134541666087,0,0.0,0
17.746499999999997,0.008851979420136711,0.0044233372744634765,0.006635829293875017,0.008848061242090026,0.015488419445629745,0.01106596848901985,0.006639933249421486,0.002210604996125572,-1.6668913859922125,-1.6480545601306418,-1.672867124452299,-1.6071190766120806,-1.4330727276073079,-1.537198591839552,-1.5672265387822222,-1.398877816261328,0,0.0,0
17.8465,0.012938084414262965,0.006466902462844421,0.009700841306158692,0.012934395235459651,0.022638806440444532,0.01617349634233523,0.009704136479632522,0.00323243983046805,-1.6580740963544935,-1.6445798345498799,-1.6693969347749584,-1.6044830579541545,-1.431172926564671,-1.5348817333487192,-1.5623535910618351,-1.3970360989708765,0,0.0,0
17.9465,0.017749724956748182,0.008873234875138056,0.013310076537953491,0.017746480003446724,0.031059202586615715,0.022187907541246974,0.013312570165845918,0.004435720775170391,-1.6477206847604966,-1.6404999790259673,-1.6653222245776527,-1.601387698918221,-1.4289420416604546,-1.5321612429663778,-1.5566314128616858,-1.3948735546090587,0,0.0,0
18.0465,0.02327539120995272,0.011636528321918442,0.0174548268834946,0.023272685866614413,0.040729350628340544,0.029094841410151152,0.01745660419221935,0.005817511359060682,-1.6357992814985056,-1.635802492859818,-1.6606305203717142,-1.597823543718304,-1.4263732390060289,-1.5290287360233072,-1.550042406654573,-1.3923836140494754,0,0.0,0
18.1465,0.02915684057218043,0.014577644074682863,0.021866373626756343,0.029154696513247338,0.051022237698463216,0.03644650928830058,0.021867545390728823,0.007288221304403923,-1.6231041897506722,-1.6308003330725438,-1.6556344246238626,-1.5940280921702779,-1.423637695252821,-1.5256929241046564,-1.543025634278859,-1.3897321847029773,0,0.0,0
18.246499999999997,0.03459615462420714,0.01729761446580614,0.025946253720887692,0.03459453863750313,0.060541435177806385,0.04324552344550254,0.025946942555698602,0.008648351080570525,-1.6113027328069764,-1.6261503787693572,-1.650990056033696,-1.590499807701964,-1.4210946924740873,-1.5225919243739967,-1.5365027074109394,-1.3872674392220277,0,0.0,0
18.3465,0.038757813545570674,0.019378682760308855,0.029067819937510203,0.03875666378477515,0.06782473669049949,0.048447488516114,0.029068142569535722,0.009689013921748334,-1.6022319553445692,-1.6225763604257017,-1.6474203048110343,-1.58778787656659,-1.419140077270175,-1.5202084536383653,-1.531489047581298,-1.3853729707341567,0,0.0,0
18.4465,0.04069517489732646,0.02034753458052834,0.03052108979042571,0.04069441331176386,0.07121548526380278,0.0508691033087075,0.03052115159010138,0.010173547747107933,-1.5979761890184727,-1.6208994236790395,-1.645745359444914,-1.5865153987310654,-1.4182229750887314,-1.5190902096163368,-1.5291367578922783,-1.3844839942519604,0,0.0,0
18.5465,0.03899625607610056,0.01949818905025007,0.02924708269793202,0.03899580197488952,0.06824269441830685,0.048745388693405535,0.02924697237746579,0.009748961064050519,-1.6017880401646505,-1.6224009734833944,-1.6472451215443302,-1.5876547112987698,-1.4190442391380336,-1.5200918776974417,-1.5312436840753305,-1.3852796564063243,0,0.0,0
18.6465,0.03192397275650553,0.015962112685859148,0.023942992264982636,0.03192374787386628,0.0558664593962193,0.03990498775736084,0.023942784804514443,0.007980987594528005,-1.6182158482792206,-1.6288728916688535,-1.6537093639331308,-1.592565493501514,-1.4225839151978632,-1.5244086227164586,-1.5403238649859525,-1.3887096526999365,0,0.0,0
18.746499999999997,0.019439517669213594,0.009719885210548895,0.014579700604452666,0.019439441177540148,0.03401888437886457,0.024299393950237166,0.014579497377886656,0.004859916916516712,-1.6495156542783025,-1.6412040717646792,-1.6660258892402962,-1.6019221758145306,-1.4293281077691966,-1.5326332589733793,-1.5576242295189566,-1.3952451013431286,0,0.0,0
18.8465,0.022264945026544553,0.011132381642445108,0.016698618702130547,0.022264864724269258,0.038963647113876516,0.02783120627882256,0.016698760876495473,0.005566170029138703,-1.6471228111736445,-1.6402616518103137,-1.6650844332312027,-1.6012068625263458,-1.428812462159077,-1.532004483272904,-1.5563013878185898,-1.3947456137563523,0,0.0,0
18.9465,0.058508305849614105,0.029254007399471045,0.04388108251850295,0.0585081693821709,0.10238951279141442,0.07313542366330311,0.04388130997125274,0.014626968119091885,-1.5746539311401944,-1.6117113872156217,-1.6365678442049971,-1.5795430353074666,-1.4131973779715954,-1.5129618777730187,-1.5162452168161948,-1.379614005554813,0,0.0,0
19.0465,0.11409418186949338,0.057046952723024784,0.08557048498517167,0.11409401657548045,0.19966474369544265,0.14261777260761346,0.08557069996255078,0.028523432213596593,-1.454405429615064,-1.5643372455573379,-1.5892497267144214,-1.5435959210519266,-1.3872871060123715,-1.4813642673813276,-1.449779749513372,-1.3545057248434547,0,0.0,0
19.1465,0.1885708583727412,0.09428531045100202,0.14142800388582144,0.18857068701415775,0.32999889427020673,0.23571361679178052,0.14142818771011686,0.04714260877950905,-1.294910805933056,-1.5015013631614922,-1.5264881394162126,-1.4959165398459595,-1.3529203512449646,-1.439453984888904,-1.361621584300737,-1.3212027080927402,0,0.0,0
19.246499999999997,0.28230690106858386,0.14115335470445112,0.2117300550332813,0.28230673925028416,0.49403695470147513,0.3528836656600885,0.2117302027074508,0.07057663304176692,-1.0942365733817951,-1.422442013686437,-1.4475222560671737,-1.435926899763015,-1.309680501784746,-1.386722968587907,-1.2507020156033697,-1.2793012444494523,0,0.0,0
19.3465,0.39410077415794564,0.1970503139893976,0.29557548202870576,0.39410063135614,0.6896762326706144,0.49262600094838216,0.29557559409300066,0.09852511757431467,-0.8545028437567475,-1.3279944584284644,-1.3531863509208868,-1.364260792105374,-1.2580243860041522,-1.3237283180289439,-1.118192902903735,-1.2292440257707629,0,0.0,0
19.4465,0.5202781643480824,0.2601390297584974,0.3902085469793227,0.5202780452503343,0.910486675135578,0.6503477320859424,0.3902086268570647,0.1300694817663883,-0.5816978860917772,-1.2211055916570495,-1.2464238355724853,-1.2831543003294932,-1.1995637468921816,-1.252435552146174,-0.9682287133149353,-1.1725929087147164,0,0.0,0
19.5465,0.653633197218513,0.32681656387180447,0.49022484226868646,0.6536331030599262,1.1438579978650982,0.8170415167451945,0.4902248947607066,0.16340825557175315,-0.21900325931988832,-1.1077807718005628,-1.133232970862479,-1.1971642485628378,-1.1375830915828025,-1.1768501269357337,-0.8092349176689794,-1.1125307354062728,0,0.0,0
19.6465,0.7817776754626375,0.3908888173426387,0.5863332189011348,0.7817776051339248,1.368110852488875,0.9772221087296072,0.5863332492699079,0.19544438882596793,0.0,-0.998444430701837,-1.024025867810461,-1.1142006220084197,-1.077783848296818,-1.1039249350778564,-0.6558369141733997,-1.0545824565290816,0,0.0,0
19.746499999999997,0.8860425810846579,0.44302128122975054,0.6645319129395024,0.8860425320411534,1.5505744553013008,1.107553235778358,0.6645319263152321,0.2215106266403956,0.09061133129053572,-0.9090222006153924,-0.9347093354858232,-1.0463476770622266,-1.0288762132128335,-1.0442820633500816,-0.5303782437290302,-1.007188658813866,0,0.0,0
19.8465,0.9408805542359513,0.47044027588430404,0.7056604044314361,0.9408805231625905,1.6465409250742578,1.1761006981749338,0.7056604054837268,0.23522012895938046,0.2678793130233264,-0.861652452619223,-0.8873955783505881,-1.010403851512506,-1.0029683116086594,-1.0126873747081022,-0.46391887243607965,-0.9820826805526854,0,0.0,0
19.9465,0.9138403114713185,0.45692015995747876,0.6853802309506903,0.91384029474712,1.5992205148572527,1.142300391616967,0.6853802237460421,0.22846007500934581,0.19101575432576584,-0.8854930774869423,-0.9112080235078379,-1.0284939440600787,-1.0160074499296197,-1.0285886152748696,-0.4973670986509637,-0.9947182056104397,0,0.0,0
20.0465,0.7684822172623573,0.3842411160086312,0.5763616660505583,0.7684822111901489,1.344843861959226,0.9606027716660727,0.5763616541386374,0.19212055603890413,-0.108746158031264,-1.0173982857235797,-1.042957320763877,-1.1285826653319624,-1.0881502775502718,-1.1165668266807236,-0.68242909802622,-1.0646279675703711,0,0.0,0
20.1465,0.49206883938272344,0.24603442737939343,0.3690516349910994,0.4920688396946311,0.8611204598110456,0.6150860482041498,0.36905162277199555,0.12301721356825385,-0.7352442960026374,-1.2948187097223904,-1.3200498358076092,-1.3390872852229045,-1.239879642902077,-1.3016008504278576,-1.0716478161974772,-1.2116608040777803,0,0.0,0
20.246499999999997,0.4429586246720862,0.22147930941483795,0.33221896514556004,0.44295862070599146,0.7751775908949353,0.5536982818758596,0.33221896967595876,0.11073965363708682,-0.9025363776240855,-1.3476640281948358,-1.3728326853657584,-1.3791859241866842,-1.2687822881524295,-1.3368476384687158,-1.1457893602617522,-1.2396688273338028,0,0.0,0
20.3465,1.2114133216479208,0.6057066544900482,0.9085599844305609,1.2114133144739645,2.119973310064902,1.5142666540662795,0.9085599942950494,0.30285332533803194,0.552213847549391,-0.7715358531039815,-0.7947354959190513,-0.9235816294213344,-0.9553230749757305,-0.9545840050951538,-0.3410295438652268,-0.935912226914524,0,0.0,0
20.4465,2.4397243147473433,1.2198621526980093,1.8297932307926952,2.4397243087207277,4.269517547635973,3.0496553950381133,1.829793238052931,0.609931074729318,3.212754748521539,0.2619102433017736,0.23794685716155492,-0.12568273755475753,-0.3699488002246625,-0.27517128361186227,1.1305901961883726,-0.3666142884760034,2,0.25,0
