t_center,rms_emg1,rms_emg2,rms_emg3,rms_emg4,rms_emg5,rms_emg6,rms_emg7,rms_emg8,mean_z_emg1,mean_z_emg2,mean_z_emg3,mean_z_emg4,mean_z_emg5,mean_z_emg6,mean_z_emg7,mean_z_emg8,channel_count,frac_active,global_active
0.1625,0.6655163497245721,0.7219549046247288,0.43559245095865645,1.1442291732406635,0.45238560252607724,0.7070353118995233,0.4277555348755858,0.7530795165694565,-0.736195017121216,-0.6230656575151005,-0.8673502160072719,-0.0713747693312964,-1.0340322431162121,-0.8661180285001986,-0.9317023745045674,-0.4763319146874,0,0.0,0
0.2625,0.6728022373600209,0.8626397928103055,0.664758931985344,1.1902905917041706,0.6704292517834252,1.2338047377893169,1.1405332133687227,0.9105410642055105,-0.7435553676829594,-0.40548238341628406,-0.5733118346104176,-0.017716495997258785,-0.8362396931340819,-0.45561335381974344,-0.35583141539418506,-0.18940573873573033,0,0.0,0
0.36250000000000004,1.0337325551841903,0.9042424065520647,1.1916105379764217,0.8989445595094288,0.7183459430839967,1.1751356623345262,1.158436241913892,0.9219405970770242,-0.2755697418186833,-0.34952965848859696,-0.02837303708985796,-0.3762749260899005,-0.8013339850414987,-0.5216563858047201,-0.28959514692688504,-0.13379029513703902,0,0.0,0
0.4625,1.1401738058213184,1.0843349166390568,1.107705302085465,0.8066052004741463,0.9110765586865295,0.9041762113758575,0.5097447987069871,0.8193254802539109,-0.06647388698804527,-0.10686518937580373,-0.2396651791052695,-0.6091739714511326,-0.627848825027366,-0.7034942519048445,-0.8390904226365474,-0.3058285924303778,0,0.0,0
0.5625,1.0315582474576444,1.1486296350453038,0.7283452970119166,0.7545880399080075,0.8991492718486297,0.8807379358433564,1.077900305375401,0.48774560602332917,-0.2503139841459259,-0.012501020349968582,-0.5772223643459281,-0.705560521233568,-0.6398769981770314,-0.7159730954704024,-0.3234580439800968,-0.791080847315198,0,0.0,0
0.6625,1.0182816429005013,1.0099656830321035,1.0329485179480689,0.964056051777145,0.8266510502464439,0.951476369666496,1.194690059030874,0.8921544957810668,-0.341602126554465,-0.12135270061517382,-0.17376122368103036,-0.19480232028028105,-0.7523867435120773,-0.6810421229622975,-0.1719387140203041,-0.296286884487958,0,0.0,0
0.7625,0.9955993010322182,0.6609069294201155,1.2050753882940366,0.9760656321663856,1.240930657621817,1.1332813233607693,0.8900833240315847,0.9199155308570864,-0.3150950235215941,-0.6844254019324842,0.0725089571253979,-0.09831124274847099,-0.22959969814341488,-0.5049755969034212,-0.5784556075111054,-0.21945802562814745,0,0.0,0
0.8625,0.8439601981479596,0.711509914373122,1.2804588905482772,1.2959679376359776,1.2935771626255343,1.1468822786739188,1.1685861279474148,0.36996312031288897,-0.5385239554104061,-0.7858572168782331,0.14636020488949789,0.3081893423901467,-0.15508476778615574,-0.4112765483550752,-0.22755439499748614,-1.0017397230001963,0,0.0,0
0.9625,3.759532897918956,2.815605157630983,2.317729754026699,2.1871635559080222,2.806993086056884,3.265450109136924,4.682948864118255,3.303231622557554,2.2699774211253274,1.5563395504239999,1.1282093092016405,1.414287318386291,0.9397383793305292,0.8269248895963399,2.596686617031141,1.648280469162137,3,0.375,0
1.0625,4.089794168245943,3.076478362415273,2.4626664668792726,2.3705604738680486,3.4981910427680067,5.563082392608085,5.500685638381681,3.6120003053608714,3.504850524033698,2.507518389336785,1.4482904323771837,1.900988972576007,2.199567006419437,3.140561185896849,4.152473689522709,2.8971812428752037,6,0.75,1
1.1625,1.9324987969914247,1.6466022252722583,1.750480301627509,1.8507620532063724,2.656538740691171,5.0103394366613685,3.4381800376678022,1.7202559535859168,0.9323505992719971,0.8195430158088568,0.6801065774231441,1.3094746935748436,1.4875615593279001,2.8344507510207326,2.0628999063445415,0.8176727684949525,1,0.125,0
1.2625000000000002,1.4555635744571291,1.5356153108489354,1.7893550358857526,1.6568495149142857,1.7474752840600316,2.4888876325844356,2.5118500214818624,1.5012898810426571,0.3601068946927497,0.7000669974045242,0.7355609092961249,0.7596029870099515,0.37188694947279094,0.9015561069755137,1.3384856083284264,0.6640501881252147,0,0.0,0
1.3624999999999998,1.7064441807573836,1.462367004635109,1.3189057667240813,1.3358468851924634,1.3038586795666913,2.2093306388025225,2.2433408213580726,1.5683239517909886,0.5191471611590628,0.5445525319290723,-0.08916578442934492,0.25098466059313823,-0.12059247543472627,0.5898725378165782,1.0779804820922627,0.7251817297114661,0,0.0,0
1.4625,1.3760125404500103,0.860535105423943,1.0036014775887525,0.8414343501385271,0.8819989903876108,1.803325272306477,1.152242009977662,1.1091429875390226,-0.20722221042052605,-0.3399999735117384,-0.34836421124620925,-0.27120559196911365,-0.658847918034355,0.0710664280883281,-0.3308803930068001,-0.06418554598938178,0,0.0,0
1.5625,0.9669622825460387,0.8356372561703455,1.1394639579552461,0.6692937175395517,0.6505796396531361,0.9292594200832076,0.5024926908399551,1.13082191128766,-0.4227454598053425,-0.3788109951817909,-0.029563501057788634,-0.617725514163978,-0.9310655072027568,-0.5789547976170598,-0.862745272498123,-0.019493372239956144,0,0.0,0
1.6625,1.1773259665603177,0.8696159438210636,1.0081800173640183,0.5728759748940244,0.7370981772321136,1.1534065843241823,0.7697335860576116,1.4950121070229967,-0.0380974489565268,-0.3616150529379608,-0.2152315008443151,-0.8274938922006382,-0.7344357391171166,-0.42029816681992765,-0.5772884675316758,0.6437483421144272,0,0.0,0
1.7625000000000002,1.4102376408223858,1.3787953233699475,1.5273617499028698,0.7147907660282317,0.8273651458582023,1.9497259305319785,1.1698063643965413,1.4694338389458415,0.2279933068270923,0.14478558128270907,0.302003644581895,-0.5938595047666257,-0.6875659579951423,0.16297343948824408,-0.15428766993033718,0.5950663322238495,0,0.0,0
1.8624999999999998,1.7731663883484425,1.7895364979892099,1.8808862485237712,1.3491165196620916,1.107677252066201,1.761211574389589,1.1862109936804976,1.587522722880605,0.7133596933680376,0.7879185046828932,0.7687753245156891,0.3032581673511972,-0.41442446514773473,-0.13493500931146205,-0.16429292545571575,0.6318769146144853,0,0.0,0
1.9625,1.7465230847916449,1.9409094580212374,1.6409651148289495,1.6534498286629702,1.518948110323283,0.960703651020887,1.9414780053932508,1.8970105946373474,0.6494791684838473,1.1104051782055062,0.43921320904467903,0.7577484600032679,0.09352859822511092,-0.6133283010232686,0.4460339567323311,0.998408210778581,0,0.0,0
2.0625,1.5861856951157027,2.3852276627170275,2.940346604039304,2.3552415554767663,2.403358781753574,2.2777916760457786,2.160661159284949,1.6158641955837452,0.4752899287989319,1.8372732039315016,1.8115491551392569,1.7441065554200563,1.017833603239362,0.41843983227846254,0.9018385676931008,0.5463582397666245,1,0.125,0
2.1625,2.2109581884495495,2.8004300553161974,3.4586381154404284,2.730665872067004,3.74901787955219,3.68062091904371,1.6748850715944186,1.87912870177624,0.9316183328178609,2.3503109317019817,2.939298609467969,2.70059770185051,2.6330000499156916,1.7721053208824877,0.49473727782260046,0.746985982075093,3,0.375,0
2.2625,3.736475983644892,3.05339425836576,3.2981357961261684,2.832837551456636,4.70247819356574,6.444797680780993,3.437497027532441,3.4478864620997327,3.2981875643028586,2.728029900627381,2.5242434065352968,2.7225657553707068,3.5512981443101848,3.8190449041215264,1.842953685746089,3.141602783289619,7,0.875,1
2.3625,3.49983118954214,3.204346165617484,3.2039502223476104,2.5016507194851036,3.774063921166252,6.282996671483988,3.4325358083218904,3.5776248607700345,2.972168923328506,3.1052220850352965,2.5082712568654575,2.020335712095593,2.102033493611326,3.6500444166469377,1.825723428219215,3.310181980590347,7,0.875,1
2.4625,1.8398228767334017,2.3230346496919823,1.9284203515768439,1.782057222625535,2.7320564412843678,4.064917936082521,2.2041658390087626,2.3781781470278722,0.742214687093678,1.0679188063352179,0.7321434637438695,1.3376220270562529,1.4560955960047715,2.0709930777205803,0.9883406543237484,1.5045310680192743,0,0.0,0
2.5625,1.2183796211005509,0.7402363669733593,1.022909479086824,1.3831389294852314,2.762334830985986,4.724520840634394,2.507821597167814,1.544622293422379,-0.2240091224060135,-0.6017558328581109,-0.2545676621743611,0.377227418351481,1.4129947380385457,2.5475738460518977,1.2738395946934866,0.4677024140318345,0,0.0,0
2.6625,1.6219335505237138,1.5449036792346416,2.013796642584503,1.7359651959458366,2.8857596840962287,6.0066449711844045,4.39727688116198,2.3369973239862776,0.12557348687097716,0.4627398254155747,1.021104372555009,0.5147413670090372,1.576032603605043,3.878402663261547,3.0005494669257087,1.3338929110620645,2,0.25,0
2.7625,3.3857342379630073,2.846699907046713,3.2528745606194724,3.2273136569260306,4.861931716969734,7.944014295121581,6.147969896085393,4.237193183389502,2.623281651895443,2.1032154078982823,2.485877613398982,3.1042234310457575,3.798902371903403,5.532084724493538,5.357334024321297,4.03312037181869,8,1.0,1
2.8625,4.374779688837535,3.626160179781164,3.2823334344960546,4.079834140487044,6.428457647889822,9.73304342083657,6.707344750323375,5.637993381128637,3.797995994920567,3.166617543740752,2.3656473966770264,4.133431937309519,5.154089880788372,6.398635011900027,5.635126296720594,5.595144686153646,8,1.0,1
2.9625,3.21740539170052,2.6871788221106008,1.9412828194195537,3.132359945866742,5.160387285049895,7.680921759403748,5.305652293530909,4.34664178716047,1.3992656183016507,1.2287005241287907,0.5924910253923666,2.0860787923874806,3.109735103336113,3.871727712187036,3.7382658028687836,2.6539943078365957,6,0.75,1
3.0625,0.7809593227600696,0.6942352600532177,0.846062766723073,0.854857692694721,1.7547450570345626,2.062330039148706,2.3276824705978236,0.646800322347868,-0.7419009035738113,-0.6128255296471729,-0.4773675552573844,-0.6699463585491762,0.0760866403005249,0.12872020103413587,1.0266641596007973,-0.597582480241919,0,0.0,0
3.1625,0.9923528085883362,0.5950614430703347,0.806225329901549,0.32294319226247636,0.7084262810202973,0.4748280543765279,1.4911060131222074,0.7777688391537235,-0.49060817174640325,-0.7943007209736045,-0.5286496141884659,-1.2796956232512193,-0.9277686428242317,-1.0742881477431043,0.25303798701062463,-0.3315542503571111,0,0.0,0
3.2625,0.7884773059523084,0.7056747433723444,0.9657669241412262,0.6290698397862937,0.5544394723839878,0.5402066859516601,1.1974711962478557,0.6844482761486449,-0.7271863250386051,-0.7265773524177872,-0.2450761866404831,-0.697039795850586,-0.981868087973828,-1.0169981378580766,-0.1809620346416066,-0.5461276844534763,0,0.0,0
3.3625,0.803133441507884,1.190062253871402,0.8378402704688228,0.69112268041525,0.9662309577482957,0.70400387518384,0.8144484167821746,0.6848846537807436,-0.6488680267061359,0.04302048425259441,-0.46215410548735547,-0.740261255176943,-0.5769809156836827,-0.8191758636549138,-0.5647260139813477,-0.6135109553370851,0,0.0,0
3.4625,0.9897609442188681,1.1935576535440677,0.5336552717435041,0.9969330591358501,1.1629806695739469,0.7961279645229292,0.9398646592705433,0.8976673584633594,-0.28463017984610683,0.04339662241604028,-0.7897612724965051,-0.3471386943709349,-0.2605592432720059,-0.7671714647162395,-0.41670846899053904,-0.24565114085077983,0,0.0,0
3.5625,1.085332015677453,1.041236395097742,0.5738132761910116,1.2437178767332133,1.0179913329268302,1.4204843009970174,0.7984521389151289,0.8905169990765344,-0.1268059435964482,-0.2720524967366755,-0.7205447435628933,0.32751928108958855,-0.38746687999646245,-0.2030063389729732,-0.5886974626291833,-0.25386505489102396,0,0.0,0
3.6625,0.9665905986324411,0.8863452123680449,0.3815787305597355,0.9884887959282908,1.051576383910426,1.3984197777904852,1.1057829111854072,0.6754204654580038,-0.37214070201791705,-0.5226347221676458,-1.0727721593086184,-0.16288190146142584,-0.31940216404115074,-0.2307902155654254,-0.2298249618542519,-0.6256765964059654,0,0.0,0
3.7625,1.3194246713163829,1.170276402971025,1.3151810849405003,0.9094798184214626,1.1283385462996578,0.8818952895828028,1.0700453020164922,0.8619776085510971,-0.03294293789928952,-0.11184434857808608,-0.22253043784630158,-0.23128754437481724,-0.27211949742333763,-0.6932623030986794,-0.2250206359267557,-0.4743228510703332,0,0.0,0
3.8625,1.3559223762671513,1.2565400827550894,1.6611025235870884,0.9056196611740251,0.9069000966154344,0.965432951379874,0.999160685075041,0.9164764664454079,0.10533468187104067,0.13239348189042843,0.691911065072372,-0.3571838719503952,-0.6346019913897185,-0.5410257684994333,-0.298056480316358,-0.30392459118963866,0,0.0,0
3.9625000000000004,1.7860089566962414,2.1793548724499523,2.1191610053826127,0.8968151494690871,1.2704028077899046,2.0917006777776828,1.8158197897527066,1.2771564822668715,0.5732501201958599,1.2097763020797538,1.2517327830374534,-0.40915143960293315,-0.34545538895118755,0.18517375023222113,0.6975109056671243,0.12297194697382217,0,0.0,0
4.0625,3.2176154488555424,3.115303818858333,2.262750363909606,1.1240356886195568,1.7333705338967933,2.9317392998304963,2.4107285566223937,2.898321871408483,2.787950160028607,3.094110331867418,1.4975004540008576,0.19356912646169264,0.24612926359734122,1.0366659667767038,1.3162918038822784,2.4233785192693156,3,0.375,0
4.1625,5.44718123234143,3.9281406092242706,2.41662508511588,2.346744159480843,3.8818866339872358,4.185261513629487,2.0001278872931767,4.527631281854435,5.2810601074895,3.8717264400708347,1.5736869968854632,1.6530623123997645,2.096376890347606,2.1085310374966655,0.5655564888554623,4.724631793391823,4,0.5,1
4.2625,5.540256707349719,4.095473009476965,4.079089058823658,4.353643610749564,8.32016431825282,11.28645789946252,6.175405981053811,4.925518624003493,5.416320800507251,4.053925448945927,3.750967522930829,4.865776098115821,6.845552813325084,7.267886524561918,3.878003173035964,5.259962113191875,8,1.0,1
4.3625,3.3361601475699763,3.2779976091390832,3.573072293041106,3.835100623138636,7.861054543603796,11.549447678292301,8.622424827475978,4.465376391097511,2.874780479934949,3.1021466916676337,2.414332699195153,3.0405472460191403,5.900706147807638,7.759849792432314,7.4578257662055725,4.810896320515079,8,1.0,1
4.4625,4.80190811909499,3.920167092305615,3.106259132347841,4.94545097063054,8.98157406868325,13.261693376204379,12.646873425352135,6.337373912190169,4.105879981813845,3.793259124230438,1.814051514844315,4.464632967385716,6.801441203601552,8.96374410604231,11.453534189728451,6.812556268745343,8,1.0,1
4.5625,4.923775456088027,3.932425718822312,3.820206293571257,5.517980815244462,9.552283077494389,13.596600476538189,11.981760870873904,5.9932527987615485,4.388908714556646,3.8403706207565813,3.288265801221276,6.979814268932495,7.959495903115538,9.489002240561152,11.160033890865975,5.998161439952823,8,1.0,1
4.6625,2.4464306343260485,2.311283350684667,2.637649445869043,2.7725378291341234,4.256608121349902,5.640304819580773,5.550017662083171,2.6922318086644026,1.4550037502933677,1.5930904223415092,1.649656060647815,2.544146784350319,2.268918520215715,2.923131314935201,4.675338792276649,2.0612805128819653,4,0.5,1
4.7625,1.6598754510217788,1.1925636967757245,1.472737601239589,1.1240177199375099,1.5615041101871694,2.1367723503346285,3.3425446933926843,1.5763404126298297,0.2572891353860844,0.061494656720670456,0.29954569643367346,-0.08837796484582046,0.034192148889705315,0.08880014840511327,1.5112060342524287,0.3219694956225191,0,0.0,0
4.8625,1.260165173043405,1.0948168120945738,0.7191847063186374,1.0390546637197968,1.2120172076317652,1.19259647469425,1.1730396147701525,0.6661467696466661,0.0025068470012924427,-0.03814003688049228,-0.6624742954053279,-0.09079528672713524,-0.3753914906270443,-0.4886219144489746,-0.11123916356802904,-0.5371324497362611,0,0.0,0
4.9625,1.0037435375110464,1.0688755205074674,0.548724104895329,1.230222135947762,0.8325204657089232,1.0579320118083062,0.8672855498124415,1.0470510072186598,-0.5406548363466942,-0.11050395310091926,-0.7717273445819505,0.43869839724289383,-0.7320095751415571,-0.6285231334246834,-0.41523212470452037,-0.02499477563281973,0,0.0,0
5.0625,0.34382445451951005,0.6861509090541835,0.6404582933989817,0.8900917518909285,0.7422561424963519,0.6415157214978229,0.7837543364612192,1.2278513363882892,-1.1940199641775633,-0.5816507401025811,-0.5700351093872001,-0.2821579065520165,-0.7745076627289135,-0.9918318708829399,-0.48093410562333444,0.21161843969029126,0,0.0,0
5.1625,0.6126038669464818,0.6314662387497029,0.5701363012631361,0.9828675440448206,0.6865450070049911,0.6596066707481921,0.9378635458313115,0.8556775892724516,-0.8774678849930223,-0.6711357843880844,-0.6996145442300297,-0.2150579440728871,-0.9044756153177194,-0.956930989449818,-0.34769778255747524,-0.46150024599527695,0,0.0,0
5.2625,0.7841945003220263,0.5328451203216306,0.7740400476258779,0.9512881188831899,0.6508328426553085,1.1635702225549944,1.0896733465255437,0.5458927235340478,-0.6758200153242627,-0.8559256131508584,-0.49976690746245983,-0.23257514884913172,-0.9195577731655338,-0.5316585131315247,-0.26978003594826944,-0.7225613991066637,0,0.0,0
5.3625,0.7712700699220909,0.5849954500826441,0.9112762869389873,0.5158059146476962,1.2235265025977244,1.2457834636342615,1.5408826265126698,0.6550227525477731,-0.6578790130703918,-0.766149687585079,-0.3103912424918709,-0.871876030073429,-0.19596372685154925,-0.3524932161418038,0.10406067520455052,-0.5203813162273646,0,0.0,0
5.4625,1.144608291430919,0.874823303504258,0.8984499130565982,0.4145444446538409,1.1514513283817076,0.7813260400330353,1.558159054741441,0.6419400192464658,-0.2309187052710305,-0.4024373883087539,-0.2522004795851393,-1.0442949830162798,-0.31793923310723504,-0.7764661356646617,0.19127454006193972,-0.5693954320940042,0,0.0,0
5.5625,1.697545834993631,0.890177318702213,1.0865455444543335,1.0848958257750658,0.8676368855988912,1.8295035330560614,1.6660581474953244,1.061795729089961,0.39306478348131824,-0.3479269666235602,0.030434093839951205,-0.28353113505373,-0.7469036596649913,-0.024817100144196084,0.48024325112249566,-0.041394362942697216,0,0.0,0
5.6625,1.3648570445700376,0.7059544974794518,0.9542585924766068,1.3171616322876294,1.1994262378630915,2.3006123649103474,1.9834229039195852,1.351596740605392,-0.38267349974832143,-0.5361645923744306,-0.3093153792634001,0.2017443524576829,-0.3971027245582015,0.6362292737760662,0.9970682176719889,0.49795292820903675,0,0.0,0
5.7625,1.2562985271746412,0.9770054472629482,1.3467749324174123,1.7618940702696961,3.4073625599611224,3.89220005327517,3.9279693475272217,1.5895296490899544,-0.4484060791559525,-0.19916689326919135,0.06508831615065519,0.8530810536943456,1.558427130685156,1.6682783835618578,2.790656652466925,0.717371227302802,2,0.25,0
5.8625,1.8414023525698209,1.284928604577939,1.7579419677209314,2.1771641282673078,3.588723301635427,5.094444730640922,7.879110184217134,3.916223046161102,0.8465829611185498,0.2508435954174264,0.8410569644872811,1.824229799501206,2.0298984170427987,3.0911915056085615,6.8278336983702355,2.939485802185534,4,0.5,1
5.9625,3.2722789153888305,2.305606477419083,2.2545206469597563,2.712184268799068,4.4673237561417,8.246449290465039,11.508732174878045,5.910562065077048,2.539278779056554,1.2712750772952035,1.392611024225265,2.842055075800526,3.390846787505304,5.072631715591469,11.211525652663765,5.9311593066845125,6,0.75,1
6.0625,4.806995714921162,2.8655359765678945,2.378286173338878,3.799551487136894,6.742135277826001,11.288079578883622,11.21667444283123,6.841806567628201,4.252089615838992,2.2233813978185797,1.5380179648964905,4.144354387150245,5.727618214442311,7.798539783201608,11.183796358423074,7.017568836229887,7,0.875,1
6.1625,5.674434534744334,3.7306405211135325,3.5632902659176118,4.26492964004285,7.632071850626603,12.103868140490903,8.97877817459566,7.389821097548329,5.623474212378921,3.5942752231199115,2.784181853252522,4.673180918408326,6.249669456273263,9.06323331068635,8.65085297373956,8.110585298261654,8,1.0,1
6.2625,5.302934142236857,3.701403996831072,3.831232212568775,3.9185213493270457,6.322488880465139,9.832597012670158,8.256100091034108,7.152362832977219,5.6970341782405445,3.6748347788879325,3.4028295697366264,4.54523998794175,5.036571629188189,6.774253966920148,7.71877455739361,8.54196719285726,8,1.0,1
6.3625,3.2172155507918436,2.144795645689387,2.119269651608053,2.7025471084291537,3.294575980779889,5.494348858456429,5.915204341355873,4.823397602871828,1.992203347822978,1.4311420227142826,0.9127279061869641,2.2951830563292703,1.4836368990352775,2.998094388372453,4.901134410228521,4.204507816973156,6,0.75,1
6.4625,0.6001948962232342,1.2136099096058863,1.017930823637278,1.024893063636996,1.2987036625793829,2.850760287154353,2.6118552379693125,1.2349176407975304,-0.8353041301901178,0.18364542250292232,-0.2584625400781416,-0.03177682949831981,-0.4431367953215515,0.624478257590043,1.440609505859249,0.11377468053841538,0,0.0,0
6.5625,0.61082301001683,0.8098179080726607,0.9898396021513952,0.623500878018157,0.5383468974388598,0.7888642721764403,2.1733242782641846,1.000206430383837,-0.8074575196169796,-0.4283269296406031,-0.17612362714125346,-0.7226390870349304,-0.9885874711503329,-0.8134043404558721,0.8738846534809597,0.015296250565907674,0,0.0,0
6.6625,0.9606721000729707,0.5811584169031762,0.8447742424401941,0.6647574455206725,0.4019578069739019,0.6254080742582414,2.135836738776306,1.0158700636321627,-0.31703815355709003,-0.7470632788372484,-0.3571720531328762,-0.7183219383544422,-1.1704212062910588,-0.8986593985425473,0.7787856038370279,0.080709641646613,0,0.0,0
6.7625,1.4664361105383927,0.47801594542008496,0.5748608184474654,0.6817741149222524,0.5769187718538007,0.717249226326366,1.5492870884040044,0.7870109717358009,0.33751614837946997,-0.9417715154050819,-0.7252129710407239,-0.6758454962913589,-1.0073159954252469,-0.7866405644160102,0.28735482679845226,-0.2817660368001356,0,0.0,0
6.8625,1.3102682868652697,0.7407297498383595,0.5325222914228209,0.4696050950243476,1.103301776986893,0.8950518016602226,1.2007098006312753,1.0058711988482996,0.039630435611059854,-0.6475073297859335,-0.7786428474244336,-1.0306599108256629,-0.34415268708177715,-0.6292278136479774,-0.13930508217880103,-0.12489092370112724,0,0.0,0
6.9625,0.6124495284516065,0.9504443204044366,0.7086215983639893,0.5856830578894626,1.074543381335927,0.7548463402905083,0.5009640254468274,1.1297743584618876,-0.8161708730347723,-0.19826389018064405,-0.5403677156229463,-0.9087563208229331,-0.38756523584787195,-0.8281488093566538,-0.9171858910523888,0.014753906446899018,0,0.0,0
7.0625,0.7460034272902536,0.7994477839931128,0.664017931786731,0.595137340881762,1.2285863847103105,0.844300773811935,0.9436310732839969,1.36081825516425,-0.7915291772728271,-0.3726607392162453,-0.6092622103065451,-0.9158666372647594,-0.2916894067780016,-0.7616702141398478,-0.5250463366689956,0.2811252784170233,0,0.0,0
7.1625,1.8822016395791024,1.7663254993571094,1.236752063173284,0.8636122352403901,1.3404303844110261,1.3431898219311504,1.2043713239119436,2.4985382877469817,0.4266894420770766,0.8179914025564805,-0.09952777866362533,-0.5505367255652178,-0.11497244060762435,-0.29642699773581127,-0.18708156820250266,1.6745632930220165,0,0.0,0
7.2625,3.339853437826923,3.472743834781404,2.7374411810419508,2.4673732848971026,4.416938586293158,7.874728913564647,9.020567214347942,5.226205369978621,2.5506850561111176,3.3934580578110496,1.6956221181209699,1.354777475629155,1.6358438667966684,3.564992840953201,4.9231937868195255,4.700663320541576,7,0.875,1
7.3625,5.957368494196563,7.471837903043725,7.499422392499222,5.7515379583861455,6.804168236859492,10.452267267108281,15.317347406043071,9.326000747578616,5.7779237384690045,7.996459452308286,6.813218924997585,6.704116864410286,5.334733768870551,7.2325589629026705,14.393295495453353,9.883891802278152,8,1.0,1
7.4625,6.2509897149608245,7.902171257163023,8.647290824810112,6.453388469293536,7.7031172845308475,10.913912308620722,14.770061219156478,9.593773606994253,6.01581391204597,8.36852073430291,8.544214688817206,8.731589632520988,7.203254084559572,7.74381034714237,14.501134331556639,10.102931791859662,8,1.0,1
7.5625,4.16316138649026,4.738452471330343,5.556818843914717,4.274729706074416,6.646138064435276,9.467116832759366,9.998955232091918,6.494238815567687,3.646930305780864,4.4608103804701855,4.700206114092529,4.937174888215606,5.378539252818552,5.8880858012758,9.220477576480523,6.591595611406004,8,1.0,1
7.6625,3.2467816649689376,2.9313114182115547,2.550117512184979,2.4632087571596206,4.790277418420271,7.889910074976841,10.405049687089065,5.749093167323425,2.84501617777688,2.422604550567559,1.2245304101658774,2.2968678802849554,3.363077823877947,5.2436605348533885,9.913094665700351,6.457105018404608,6,0.75,1
7.7625,2.382971946629071,1.5267189548968532,0.8402686965029225,1.7157405185934866,3.6061382615753463,6.74461646596177,8.623647931316247,4.3368040890871224,1.2791415397574228,0.5272822704842554,-0.44026216060876955,1.1200300233104497,1.9533837983411835,3.6317899872156447,6.269573584038178,3.3272506790307834,4,0.5,1
7.8625,1.0612770133125586,1.056442420412896,0.8809089336011754,1.4414662233892066,1.994102733958745,1.6099418399162913,1.804701951854654,1.1465632718936667,-0.35892340803232353,-0.02020727432772217,-0.30440176661577184,0.6689986993550285,0.4696215831469803,-0.22863758030094553,0.5471013182876687,0.08825418851723367,0,0.0,0
7.9625,0.6826300697430999,0.9966740710576717,0.7054990276159185,1.2759186879657083,1.5535586145750795,0.7497474882019254,1.2989344503962397,1.1609984936329099,-0.7622535983223573,-0.11797685523889866,-0.5278981955343661,0.40307514034513253,0.01985166854645522,-0.8752406594586715,-0.10574591290494087,0.17616046991244316,0,0.0,0
8.0625,0.9714170274432634,0.7252926238263218,0.6668737785325264,0.8567260363099103,0.965734805252141,0.4477959894434369,0.839973322633811,0.701247452944424,-0.486244846258384,-0.5727413589422343,-0.594898261655194,-0.588585284070356,-0.5339460350853927,-1.1378345795592353,-0.5077114215259064,-0.6447957392166151,0,0.0,0
8.162500000000001,0.9453364233737627,0.699991786942824,0.6343141793042772,0.478522428638175,0.7648459894096564,0.36173711412824117,0.8812628319958707,0.50485612994465,-0.5322689088632869,-0.593135174640778,-0.649784814167375,-1.097958600712241,-0.6985332392095145,-1.1727527621309715,-0.5543177662269928,-0.8195346542601656,0,0.0,0
8.2625,0.5026577867546593,0.67357059682276,0.46186779977321674,0.563241267421296,0.8374413366079633,0.39300990074242514,0.714432473780333,0.6373937993382568,-0.9779582429283997,-0.5213099098122229,-0.8535573561918528,-0.9004394758466983,-0.5660385273274796,-1.1397675885601417,-0.6534602434121808,-0.47029054913375296,0,0.0,0
8.3625,0.6664282853758358,0.8035147710135665,0.4483235432913262,0.5285518002055684,1.0232357162639527,0.3777612700157394,0.5240021128096201,0.982028289283253,-0.748641295918657,-0.3861888302215546,-0.8937863677199518,-0.908525636566008,-0.3320546332761117,-1.161872579075124,-0.8419022761929944,-0.09041634619827478,0,0.0,0
8.462499999999999,0.8119924366753573,0.8958857352225629,0.5962849527192632,0.8023022463003119,0.822681752727946,0.5506896358017439,0.5166108053697233,1.0539950845905235,-0.5696359513321133,-0.4001924806703199,-0.7212285874687739,-0.4269215091493638,-0.7616446639813446,-1.0014207584967765,-0.8461342003594818,-0.017399508416323223,0,0.0,0
8.5625,0.711162619250746,0.7723348773987819,0.7023013497149032,0.7634622656446363,0.6271913782211231,0.5681289011467023,0.6057696893183606,0.6669313858536806,-0.745779276514338,-0.5298203329427308,-0.5556576405415052,-0.5547354277061768,-0.9339959714173951,-0.9995486779793596,-0.6985259036129189,-0.6120972848272883,0,0.0,0
8.662500000000001,0.9093196819261811,0.9335079270135236,0.7479366032325694,0.41833797644461446,0.9112093171844592,0.5451799475049985,0.9140233269947101,0.5366495952463892,-0.5554699567525518,-0.270864917644499,-0.48792547930186186,-1.0650744013545888,-0.543379215128719,-1.036853780119671,-0.4627409541073757,-0.7151011311866721,0,0.0,0
8.7625,0.9609722434386666,0.9956945099959605,0.6487305239383879,0.6054668293206006,1.3218733800135907,1.0920821490144113,1.0512281979311104,1.1368350816221156,-0.4931386787608217,-0.19505952572813762,-0.6449933591869432,-0.8018630809551043,-0.07965573893742729,-0.6739319927633612,-0.2989113816074757,0.09551574463110762,0,0.0,0
8.8625,0.6064603443628989,0.7401796405280358,0.6520960296213241,0.5812324631247988,1.3802670689859322,1.8771495659116049,0.7984203351268571,1.357381949081185,-0.8620647033219646,-0.5898604917474188,-0.6141437497758699,-0.8800571327665042,0.08208702326739797,0.14413696447234148,-0.5799945130792722,0.5164787255017792,0,0.0,0
8.962499999999999,0.5958930804536452,1.2682603160236814,0.9489985122855227,0.8830731464642492,1.4958366396774994,2.082952138652521,0.9936803534202394,1.0333191823333876,-0.817708973852324,0.06914671602732562,-0.14921749239828216,-0.7117797480217871,0.06287961063109714,0.27763669240354,-0.48133968788634396,-0.04731889330044706,0,0.0,0
9.0625,1.4814820357911256,1.796964754855846,1.535193821455342,1.6829452136955443,1.753079038811195,2.1437669135106407,2.3898706769603657,1.7355635957336408,0.2875728931856995,0.9875417520422469,0.5825824035649085,0.6989162208520514,0.27410008587768275,0.20809345470755714,0.767117310741351,0.7412003697498425,0,0.0,0
9.162500000000001,1.9856059645932005,2.27543637882568,2.1018625600203373,2.5535117254906448,2.2573496074936052,3.6349562708631233,3.416501622856335,2.5601576419861183,1.2101865637969522,1.4965971611933968,1.2387103856879629,2.2531628166372553,0.7592046525106787,1.4850479409970847,2.2863533917915135,2.01990234618537,1,0.125,0
9.2625,2.404676615398975,2.2767786154603487,2.660598399242398,3.4442684224396,4.7086330436989625,6.524558492357194,3.3629382328895656,3.321389259927837,1.6656093484433219,1.6468193200329204,1.8968516234744706,3.9477268626642643,3.2148557287463615,3.926512564117653,2.517328496985712,3.138579671461883,4,0.5,1
9.3625,2.393546790490593,2.209553034498827,2.9139371638120184,3.8099137203313878,6.258336695375653,8.473511991726975,2.6120226033837253,3.3214805765395012,1.6040026909902203,1.6955355678358015,2.2751842734550967,4.651711314590201,5.501525771410249,6.052131725562116,1.6114677048258748,3.1310770856412473,5,0.625,1
9.462499999999999,5.633385534423192,4.169807343723801,3.750894247523633,4.19441139751373,5.3379509394489615,7.298072119404664,5.165283376668206,5.454288126113541,5.400751202670159,4.591055670221303,3.3504316315030582,5.218570961960654,4.245037713868692,4.667283520757958,3.7486416760797323,5.779302703473875,8,1.0,1
9.5625,5.685190629088312,4.408968847493452,3.788149937544796,4.1297450372923565,5.252679830110243,7.426471815634914,6.448399529400092,5.389611153208048,5.467165261051056,4.830633689722346,3.4663740423562914,4.81761548127235,3.6143814945655297,3.8987472036091453,5.910813974019312,5.656585910647827,8,1.0,1
9.662500000000001,2.601966015429502,3.213034007492902,3.0780858027610276,3.892884080381802,6.862417608172473,9.456807608275563,4.933412605715187,2.9253022840116594,1.6158701225204755,2.616027242374156,2.506217874844901,4.0663333576403975,5.274692484086339,5.3796069597442555,3.9023490518801647,2.395622389487973,7,0.875,1
9.7625,2.4015644716658313,2.8205767637173573,2.6135238352568475,3.0883231836654943,5.552582643724814,7.393583536774482,3.1943280083728434,2.854630369531029,1.3974310739660385,2.382517060960269,1.833574653827945,2.4150312389000894,3.705618301068168,3.8735461031035743,1.8249049638443104,2.3092469594172145,3,0.375,0
9.8625,1.854327850924537,2.280713457139057,1.6659806157739758,1.4747212244271413,2.890197028163411,4.665639913288854,2.273900088481426,2.3940983771237656,0.8264428609516551,2.051282809812965,0.601701933618763,0.46279466895625004,1.8538626847448794,3.0239993971948262,1.173907513146587,2.022153361382247,0,0.0,0
9.962499999999999,1.6001637906821935,1.644918900922532,1.3546411533023879,1.4212893174607513,2.6530008509730068,4.566015524165431,2.070310702756057,2.340364682472989,0.4268544474010796,0.6235927282368304,0.24060732894320488,0.5509103218522317,1.6396282445808155,2.9559482979127973,1.195822535713814,2.078749683809591,0,0.0,0
10.0625,1.1160927947357862,0.5805439200664159,0.9561597161866043,1.033742889334085,1.8147248067959258,2.8688906479436564,1.6022254393662274,1.6244881119169563,-0.03058392061969868,-0.8401357443179246,-0.19924166031766663,0.04893630250259006,0.5939617144670397,1.1942821628283204,0.4708092961198183,0.49962374005958254,0,0.0,0
10.162500000000001,0.8228533790339958,0.7668883676301376,0.5372992212807784,0.8380983107391358,1.297352422680292,1.8210040170442314,0.8636694430536983,0.464025510685896,-0.6235431703305042,-0.5637800913424111,-0.7439754801028363,-0.2540503592300376,-0.12443220593028767,0.08371001658474825,-0.4495466024854256,-0.8863895486057259,0,0.0,0
10.2625,0.32213879974296294,0.7417107677729654,0.42695349351899364,0.730656717052585,0.797589812561877,1.128763737326657,0.6271736273649784,0.7419198241206163,-1.271746781298218,-0.6910187913679665,-0.9031066230166895,-0.5711799359966496,-0.7506504815386452,-0.5234343414054582,-0.8121468848589393,-0.5931873858722256,0,0.0,0
10.3625,0.7229817050025319,0.3091429105710863,0.27203339072132166,0.6004949635604823,0.37936235935463,0.7773551004974733,0.6647826393383632,0.868622093115955,-0.7589798245318906,-1.2182727407918426,-1.1173586382840932,-0.8503125337324327,-1.1794240447377629,-0.7627432146895401,-0.7507516831085321,-0.37116557762445185,0,0.0,0
10.462499999999999,1.1344480009907627,0.535012813505756,0.4408644152889206,0.7823733970069413,0.9332048908676521,2.8515843057414605,1.3217486179607043,1.0706265618803301,-0.13321851489453176,-1.0030529584371723,-1.0547717298043324,-0.5842919524060676,-0.7156158788926777,0.5139364558348578,-0.045955398781969775,-0.01703259772569752,0,0.0,0
10.5625,1.3187476481761755,1.236277925222194,0.8366911935451021,1.3229356023583154,2.4132186769411277,3.975417206926618,2.7639289039226487,2.0767489241283172,0.04223379495676711,0.029272325088789915,-0.5019813379881872,0.1959057132440661,0.8262537568189152,1.7610003264600085,1.4724998637946007,0.8156270981639271,0,0.0,0
10.662500000000001,4.163644591629206,2.948501811905629,2.9015385430751373,3.0508278321747273,6.354146694306679,11.624662369555464,8.698312496778271,5.17895811059062,2.663861446690478,2.107084189806953,1.642848051327591,2.662348987810445,4.679588761427015,6.869208888587399,6.723690612888962,4.089338373365746,8,1.0,1
10.7625,4.789497881814451,4.145604860221129,4.498199390616218,4.482415508150786,9.126503073240091,14.512482809529628,10.051496551942828,5.569621652994486,4.344631466650015,4.383269989518167,4.330082834959571,5.539860141145193,8.441686957339206,10.60121642248277,8.856314913712843,5.125105928881218,8,1.0,1
10.8625,7.210643820824717,5.680280825401402,5.85784756521586,4.991878465166633,10.283365178927212,16.144769464559932,14.482145601275203,8.237412400099199,8.032056968379072,7.433449739272351,6.588903603870209,7.064584977482509,10.612100755822139,12.450602125509532,13.966344083427122,8.956890140622953,8,1.0,1
10.962499999999999,6.957640067082673,4.914234896572659,4.964647093753418,3.7868386247013444,8.494492309799007,14.86658345205442,14.73967507745338,8.413954177348947,7.167535156116611,5.203875952396397,4.67366128707374,4.186140496463982,8.229295451338864,11.464554486880314,14.93533466417616,9.737094142559593,8,1.0,1
11.0625,2.1384641982562234,1.5906764173798922,2.2938981118186637,1.803835327671809,4.298501139430024,6.703874054467077,6.7636182042613555,3.5298085234491743,1.1927656511556597,0.6330229655247654,1.297683664095673,0.9131431919336315,3.0291892050627935,3.457341038689494,5.842080597256489,3.0146736179601032,4,0.5,1
11.162500000000001,1.507042265725227,1.6205017613984802,1.8750753956869974,1.7492115946219513,2.8266951521309163,2.3561893064018706,3.2047036215286484,1.570962017343663,0.30305030471470695,0.8878472727758714,0.6789800011883059,0.8529837973988204,1.5008477291872884,0.3510201671565245,2.1612261812774247,0.6488005631544617,0,0.0,0
11.2625,0.9850239942755488,1.8953358980365276,1.3665607288506412,1.3344309784001704,2.009820711115035,2.3259321870591068,2.1475829556516004,0.84182210521086,-0.29432842015805316,1.1018708797293886,0.20632109385686825,0.11079818964198783,0.3036560548663044,0.42959705150371286,0.7661379252740081,-0.38324251995426445,0,0.0,0
11.3625,0.7083184982230634,1.4545703897450142,1.424913628387293,0.6498134280055552,0.5340411466220095,1.0579498284260724,1.1667062072446572,0.40422208588599157,-0.7105887128704786,0.14192457415745754,0.4027144701460495,-0.9500432218060442,-1.0497680605441082,-0.6353179275637468,-0.11865859707859448,-0.8736007908568625,0,0.0,0
11.462499999999999,0.6536310833428113,0.7557401420109244,1.2343948557397877,0.8675132693132841,0.5532656375117999,0.5490774113638573,0.7857598200951293,1.0405977082878104,-0.8068514651849175,-0.6453295480139666,0.12580757473719031,-0.6356748168196859,-1.0176073751978512,-1.0433136965593894,-0.65274949823005,-0.28722485917924484,0,0.0,0
11.5625,1.051176498132593,0.7737246284564817,0.9319745627679638,1.019403728010976,0.9570755176126238,0.7854982998545885,0.773292886068832,1.7143520448610778,-0.28047863255588007,-0.7390508862271846,-0.28126086238146625,-0.18027744909796584,-0.4603905566528445,-0.8092773462783485,-0.7479098731494696,0.7539927684162722,0,0.0,0
11.662500000000001,1.775582023293916,0.5898391188107492,0.8374123819672787,0.6851387778347114,1.119211832944485,1.167623136421574,1.0613661033476813,1.4962267971741035,0.6686665213301294,-0.9720122792958372,-0.3936292207723632,-0.6402156883102024,-0.27329687594365465,-0.44660128719043335,-0.23392499019968035,0.4387920850761424,0,0.0,0
11.7625,2.2600027525083863,0.867620056302904,0.8381801130080043,0.4969318691922706,0.8645354900707364,1.1986516345912164,1.0915410837315207,1.2700670629522215,1.4174569976759834,-0.587163204970416,-0.40522028182765873,-0.9429149660893061,-0.6912685900812153,-0.4340938951451727,-0.13832013889163766,0.1367669850052018,0,0.0,0
11.8625,1.742398648374718,0.9600586016075814,0.8679870968305657,0.5943628809400089,0.8761925038442085,1.5175832798156983,0.9943804865662487,1.229153706832299,0.4877569138229172,-0.28102478995937613,-0.3553585425597044,-0.9102498859819419,-0.6573717051373618,-0.18697717100472694,-0.3285753084468911,-0.04296692000283868,0,0.0,0
11.962499999999999,1.0094298823027594,0.9288938868195079,0.7925842959031102,0.6302668132048242,1.2656982448257876,1.894518769966665,0.8442367339000106,1.0401335051549694,-0.3096307123088704,-0.2913121776459641,-0.46545819671117367,-0.8016961292998362,-0.1271915386545993,0.2760614189278116,-0.46373591485919463,-0.1126217474872479,0,0.0,0
12.0625,1.1995417989842192,1.1462606427306372,1.0375877174063004,1.2670691058060781,2.017204815659797,3.025955010818126,1.4189478674057345,1.1752276306446212,-0.04287883054152071,-0.09779662306859604,-0.404976428955661,-0.022622385547635595,0.6049481721006094,1.081642882057163,-0.11906769043962732,0.20907439812138665,0,0.0,0
12.162500000000001,1.9880794501112564,2.0656791874346228,2.4048081826631,1.8245094143649465,3.200269204203201,4.348081166954745,2.2150254248135752,1.9139739482774827,0.8679902118022038,1.148147837887497,1.2613968416569252,0.9509190682951353,1.9999455063194427,2.413776486756687,0.9158455123720379,1.0522429573446344,0,0.0,0
12.2625,2.6923720633557275,2.3910229310449105,2.700742743436114,3.09654251133399,5.60655586287925,6.766831415495333,2.103422157801156,3.1428170205978763,2.251925984059053,1.8934110685467513,2.1282413902521835,2.7723690465074435,4.508577907509755,4.474410166707954,0.913380908631402,2.9793217855607965,4,0.5,1
12.3625,4.814570440708998,5.1972922170663995,6.143092647467852,6.241029585908969,8.39218971206173,7.599023237640654,5.104307817319659,4.485396524032415,4.662811712697777,5.445720185088564,6.130937521678625,8.270223911247399,7.703794248558733,5.082897541772639,3.18433016207498,4.534549916888127,8,1.0,1
12.462499999999999,6.276262391073062,6.193126767611571,7.220146072164733,7.039613020176824,10.040727785182952,9.775995027234664,9.329835473253244,6.484151702899511,6.95684487386544,7.732407142690665,8.367019118408473,9.740393029470487,9.388746467564674,6.383695060328802,8.67640132797323,6.7914507154072234,8,1.0,1
12.5625,5.087406927756487,4.598758344949253,5.026835885058453,6.149009027237085,11.340458638834043,13.480509243914181,10.73343406156482,5.734726844546655,5.175889516946414,4.875803525268752,4.831585428991391,7.474902813060173,10.506822023826725,10.335536423620878,10.922069376814347,5.287008536435831,8,1.0,1
12.662500000000001,2.8597861998962815,3.0540543432107587,3.257797296760382,4.516336601838622,8.802825663925798,11.166435785327263,8.562238875593088,3.022818301094682,2.209694839297385,2.305583480169492,2.3405256425518632,3.7837492359838416,6.347604386004259,7.688969525350352,8.192277962899277,2.759530563856236,8,1.0,1
12.7625,2.7229207218014246,2.40489714546321,2.5329553664509623,2.8176779313479323,3.412553472150789,6.205862019836074,6.912042730961507,3.9682837559045097,1.8767050997382921,1.5672853637952908,1.4508436660338617,1.8655097787949655,1.904947850892701,3.7598121862443747,6.426655808259819,4.125014910715584,6,0.75,1
12.8625,2.4842151102809518,2.0918974823814467,2.1315395023665022,2.7359396620291188,2.9465637045613144,5.047532838627279,5.375504860808079,3.6852883527347324,1.4687508860014555,0.9052772288702251,0.5917130899311165,1.7637346878728062,1.1481715398046952,2.3739642018050873,3.858756796502448,3.3783562738616286,4,0.5,1
12.962499999999999,1.219997690213222,0.6650608927570676,0.39059917250575826,0.9971409015346078,0.9223011287390259,1.7187498265363632,1.356703452498418,1.6988402908233384,-0.1273572556396051,-0.5915835243304289,-1.0885572421227776,-0.08957898207089002,-0.5923784886472366,0.12221451964644253,0.07135416314298204,0.5102255829192264,0,0.0,0
13.0625,0.8049489217837771,0.6909483210876144,0.8789130807559531,0.7916656199668008,0.8763732704707513,1.6537543531070151,0.7622364445236098,0.7264069140613382,-0.7149823136726564,-0.5672082217439304,-0.5828455789349875,-0.5045369682648383,-0.6639976866138673,0.05101018670487929,-0.634743298228789,-0.5182544811389271,0,0.0,0
13.162500000000001,1.0786289043785302,1.1613568154656537,1.1259704035494738,0.357501467716952,0.8155283368587711,1.6204980445832453,1.177216385990329,0.9746543529696466,-0.3304265042100258,-0.00808923345536366,-0.02118135141459825,-1.2257188954921059,-0.6909255595276305,-0.02177703268655438,-0.27072419114639773,-0.16768770905783623,0,0.0,0
13.2625,1.1498778546728738,1.0837793694018463,0.7561143490820671,0.3218357653250758,0.5009484656138716,1.2008123389518026,1.3748909646147178,0.9215231133040681,0.03785618478887098,-0.24691808214082134,-0.6795413904127423,-1.2821593305136605,-1.066532965245906,-0.5029383911534714,0.04368037594776943,-0.23298525404969475,0,0.0,0
13.3625,0.9323527098531051,0.30972660846312283,0.7903206911911387,0.8184700385165111,0.5348707546044899,0.8734316793467737,1.0547958469996566,0.8490793518203525,-0.23019645242248413,-1.242147800422218,-0.6214767277438339,-0.4895544545813861,-1.038349540535398,-0.79140059696113,-0.2610524283136992,-0.2826818385859684,0,0.0,0
13.462499999999999,0.8340689642978545,0.48239926168136416,0.9212758120581039,1.0839181560706215,1.2754813444630575,1.4528208357884245,0.9950611655855428,0.7537230690527918,-0.4806339376066821,-1.0810539763605094,-0.32392483378678805,-0.006212338084556371,-0.33941731775445044,-0.36214908416368957,-0.2983158842149765,-0.49545525526647743,0,0.0,0
13.5625,0.8345018250891458,0.8254466160763357,0.7677317775396073,0.9690321840014058,1.9032677749933453,2.37443940061524,2.3244545186800925,1.4266303210521472,-0.5480269953125568,-0.5003056452076781,-0.461660075068844,-0.28829532290873616,0.43126274875300213,0.49621097052273,0.9143237088880385,0.17166269462840625,0,0.0,0
13.662500000000001,2.9610859574638964,1.732733034768071,1.2406473344822142,1.2563944141932746,2.517410748827623,2.5919411153915353,2.7787452065056026,2.8849835710608485,1.280242025967445,0.4827214493387943,0.0427080439472145,0.22255993832357457,1.1384829052133458,0.6208056696478246,1.4448775487092596,2.0908303857118793,2,0.25,0
13.7625,6.450225671007716,4.724690236891233,4.196384641771184,3.9861204372723504,6.870748564833074,11.262773704256942,12.963087872165984,9.00302873546865,6.414607091890854,4.5213595220194795,3.2521166653556275,4.055917663864516,5.249058301090463,6.581483318292349,10.520855254447586,9.374629737351944,8,1.0,1
13.8625,6.820479942554557,5.094427283802216,4.7417744704525555,5.040953248572276,10.436888173651644,17.982813471920668,16.610409972009577,11.236007576563795,7.345010233612615,5.651487111092252,4.44292308742497,5.689167836783689,9.202243579459173,13.666717336004051,17.081249833276058,13.614072922877908,8,1.0,1
13.962499999999999,5.625099801782953,4.150451885389286,3.849531890934049,5.091157940594331,10.694394409385492,17.95975315233802,15.777706330997843,9.792279409274897,5.711355878082566,4.524194128364765,3.385714734251354,5.269915084788998,9.202748547511042,12.949919052408559,14.399459662836556,11.06495625518372,8,1.0,1
14.0625,5.074406904334409,3.9186760483091634,3.779798649767996,4.711388440816317,9.77587738280588,14.58911329412987,13.831722396100965,7.94588140493648,5.240440324669436,4.201010285918424,3.529995712486025,5.439755412504253,9.30797097336595,10.42480676879813,12.235331132471934,8.651257326491212,8,1.0,1
14.162500000000001,3.529493885809346,2.860361298226403,2.9925561562541754,3.602943883982328,8.11564650237676,13.118085566963236,13.065664939120186,6.318165346588482,3.4484260990520026,2.5941984436892676,2.4504903931376196,3.891792401083918,7.633894984380106,9.794308240719124,12.424007830785706,7.100976969752451,8,1.0,1
14.2625,5.070278530297757,4.929377682634618,5.3181833959928495,5.225879561982223,7.257947891098724,12.455428675418192,11.06986536120306,6.642043607624084,5.230947563769207,5.05494533548304,4.863892038659825,6.385534950182484,6.975564100965423,9.974004959355181,8.545885803774702,7.958405273250091,8,1.0,1
14.3625,4.832410124566517,4.861941112068549,5.492557751983724,5.512683407255502,8.174849958954473,10.791581486330305,4.432961577651995,5.285420603281575,4.6348596074883215,4.93806441801459,5.240423556694639,6.955484004863873,7.676820316333065,8.326417132390501,3.3585716063684448,5.625326228776797,8,1.0,1
14.462499999999999,1.643392802540462,1.8170220459190567,2.4342135133563128,3.1916758854324123,5.817552186317212,6.7206642421438,3.9707554229810174,2.2346232945654476,0.1867344221646469,0.5036174499015418,1.1827160230413065,2.613471900263468,3.4337266992769897,3.329729200033772,2.540982163781263,1.0170079840740118,4,0.5,1
14.5625,0.3032460245380301,0.43470277035611427,0.8869039034661801,1.4977374052065748,1.3825996664007165,1.3436998203323216,1.6329312627961199,0.6358884586354199,-1.27446486311533,-1.0142823158529615,-0.511503432017762,0.7839943662874138,0.002517658841698347,-0.47658606270714077,0.5137050519141184,-0.6802588177860446,0,0.0,0
14.662500000000001,0.7015493806944393,0.8025127551049658,0.5463955724043047,1.2180921798615223,1.2417735181682494,0.6448114995975522,1.359855020902459,0.7014223353272401,-0.873384077520016,-0.47459320415769535,-0.7398030207597702,0.18331073108113297,-0.17188500181928246,-0.8837512658594769,0.1332428210145976,-0.5062355138400739,0,0.0,0
14.7625,0.7721393788083212,0.9019891992736442,0.9390444813652206,0.8310705494802484,0.853322459677044,0.6796516188761286,0.7132390749683237,0.451962645944051,-0.6692511762092558,-0.2898249302940494,-0.24085545152265697,-0.4395780351864162,-0.6100341273115522,-0.8463744909597682,-0.5815773983778985,-0.8659760825627971,0,0.0,0
14.8625,0.823310922579631,0.9961205227098924,1.132664178581222,1.1142274774711483,0.7744456450198357,0.8690330565422317,0.6027176632918708,0.37101660095071093,-0.4738988938035091,-0.19437931019060772,0.0005885510940407291,0.008161657370325875,-0.7203800292906672,-0.7463448140170441,-0.7764081133282176,-0.9885364755044124,0,0.0,0
14.962499999999999,0.8262060962408903,1.15208769954499,0.8078445568916506,1.1310933899308693,0.6546563473244007,0.9077537166092692,0.6644212212859423,0.5728566066090554,-0.49918408822090327,0.08800650003159889,-0.5752580799952692,-0.02739969745945392,-0.9400950407912095,-0.7129174694837583,-0.7005574876376441,-0.7058477726909967,0,0.0,0
15.0625,0.8977446039571166,1.3626659859412584,1.003980951368245,1.210789291250623,0.8997815696017051,0.8662960823190231,1.5554878878571192,0.939906507388539,-0.495093400499047,0.41141821440228116,-0.536362320041913,0.15376341302444815,-0.7340603677010802,-0.6677847311060726,-0.07242963169259224,-0.26137367701740266,0,0.0,0
15.162500000000001,2.0343219655998155,1.8057246465029984,1.4117636092393804,1.5287432517575374,2.6429082555506533,4.042720723880952,3.811774733471665,2.457827304442251,0.6316713900823832,0.8317803483463619,0.07675643510479851,0.607456414735117,0.7146551369175371,1.16450576484828,1.821124905381794,0.9730544466704374,1,0.125,0
15.2625,4.612656332026683,3.1850240314851677,2.489871860576508,2.228078673101657,4.264005019756473,6.64304818773778,9.277512394988952,6.2543668965398584,4.270487156811416,2.5149177182138382,1.31060614032414,1.4743453342723627,2.8246509114364806,4.088676696008303,8.114010434641461,5.95105397350114,6,0.75,1
15.3625,6.21632548419518,5.039333077975063,3.914806226133126,2.954245943551431,6.0993276845250275,8.901841767802981,9.540876495302651,7.726014162543317,7.268029184214201,5.8711983686543086,3.539348457248447,2.505783513628137,5.044642841683691,6.704590302541053,8.99846245869735,8.796683216231648,8,1.0,1
15.462499999999999,7.797369811066439,4.747475113062676,4.003232714930097,3.9209610950955125,7.105483724248031,8.390353077248866,6.922586357184027,9.213690838468173,9.015991694740215,5.382721388453779,3.7849286426476043,3.339077159978006,5.538511388223664,5.744942025866932,6.08838710703755,10.105583238157438,8,1.0,1
15.5625,6.774783917260757,2.878053875957863,3.70902007603122,4.30768574347379,7.283531994271729,6.469520805596115,7.3507574623429575,7.791368968264394,6.953823406729964,2.7550051839425067,3.3523918234048398,4.5838021207185395,5.737977872043573,3.995356372522075,6.679183191482172,6.768127700240177,8,1.0,1
15.662500000000001,6.157000923729693,4.1700509324253066,4.797063811974999,6.575720911956658,11.74530325349118,15.071004056150892,9.501578633778673,6.890524683877717,6.761951486532119,4.619461504951635,4.827748795308105,8.255777126983954,10.431125362755617,10.205563593249643,9.373876665776802,6.887697074176713,8,1.0,1
15.7625,5.711124302247056,3.957069905838522,4.184529757765012,6.173420744312384,10.651842265648183,14.442455204476067,8.208239548446574,6.859906258212241,5.165523526473241,3.7800826719708085,3.5582739652483455,7.171381909606599,8.019022257885231,8.530822309749635,6.124399264591561,6.901416008511708,8,1.0,1
15.8625,1.2756293546810742,1.4261879949238165,1.7831054005716285,1.7874731921532907,2.534768489112613,2.6585769162056976,2.1702100001345284,1.5752494167010775,0.12149188484121291,0.42908287690762414,0.7541742860068809,0.9555291422694975,1.5182878819276158,1.128320627397108,0.8835687850107716,0.9064011791487652,0,0.0,0
15.9625,1.2692090228321002,1.3895877720188643,0.9914810502512263,0.7679944464618543,1.9883389587356761,2.1866260226487535,2.840845145484587,1.2789448283760716,0.0788041264992366,0.4721438486907495,-0.17312467609077267,-0.6052465438410455,0.6528528458995511,0.6493935293151342,2.1551088499623092,0.49552117462649375,0,0.0,0
16.0625,0.9015134293647572,1.1631958625415226,0.7005383777210794,0.8811593276287141,1.1555045209360681,1.398071823376978,2.11833069781764,0.9725478625707903,-0.42852886351461905,-0.12385648672127053,-0.5077862929232085,-0.3674692590284977,-0.19231041837634977,-0.22969833398441591,1.00757393835577,0.0680915462607132,0,0.0,0
16.1625,0.9571870491027672,0.9476228353625182,0.8519953883340015,0.8269314756233165,1.0869678647619696,1.4307248618305488,1.0688159233946068,1.0724703299761167,-0.45577398630763777,-0.42521674056940545,-0.3039053844317805,-0.41478660728511146,-0.2766724583071634,-0.2259269447120379,-0.1669961728335788,0.21445545667719285,0,0.0,0
16.2625,1.1347199477410654,1.1749372919368393,0.834457066044662,1.031550965733645,1.0500195272103299,1.8142078130539057,1.3380239551495872,1.1024425669254965,-0.2442362351004867,0.009508104978100647,-0.4029855543983605,-0.20374013541958955,-0.40863995916032086,0.249664763683547,0.11447098746834417,0.1134446381408601,0,0.0,0
16.3625,1.90800554434521,0.9034219594489065,0.661682432073669,1.1342976288998488,1.27938257686183,2.617165310673696,2.209775618617841,1.6347114736965074,0.721873919626434,-0.41809130035549363,-0.6694909794605673,0.040276394611895,-0.3258274302696702,0.8595529801500622,0.8253219334795086,0.5076846994027079,0,0.0,0
16.4625,1.8151137314456076,0.8688113933743116,1.2290342724213474,0.9913483894244576,1.6193782258205949,2.975062332827272,2.3752163458656814,1.544373918750199,0.40434355605350625,-0.3661104720272853,-0.03138992084305542,-0.0683110576112521,0.16224233182602965,0.8815690114288077,0.7830437127425252,0.2739662334489131,0,0.0,0
16.5625,2.2141627926510847,2.915230107267744,3.594377027714327,1.937488962991257,3.1185198334757733,6.336566211534018,4.674321000901296,3.084994665558351,0.47846389434939046,1.763639805137307,2.3743595363270305,1.0137844709998547,1.7731328921459022,2.7234325698822928,3.149928728449771,2.008685668560472,5,0.625,1
16.6625,4.011197028913736,3.086225981451654,3.722490799327426,2.8064101614956636,3.3070526854824203,6.660900742105938,5.383416534909912,3.750097937959029,3.6944261710966515,2.1823996021785166,2.7207690634644526,2.751164087565178,2.028756427548467,3.571289140663528,4.874543878844007,3.6493410629347407,8,1.0,1
16.7625,4.268402727587936,1.5224044037878717,1.7979174999515912,3.2192944438147935,6.316041822711736,8.37881125878847,9.69637682779485,3.6743571749995927,4.500981750907679,0.49131554199516336,0.8862271644641568,3.3912002744234426,4.68355853333069,4.994430841302833,8.764014614850424,3.4837696458762264,6,0.75,1
16.8625,2.8097120083466223,1.7048845143256404,1.8580326538173897,3.0879104673493973,7.514473893350278,10.855568630996622,11.529811260219425,4.469337232817158,1.8366048303079328,0.9487189407600263,0.8147473957050935,2.9505218563355045,7.168286431253383,8.04382239324298,11.162335648021758,4.60652527105882,6,0.75,1
16.9625,1.7364275724175076,1.7255058635641087,2.269513974028446,2.21151404876203,4.538632120740267,7.9121962430075525,7.2517076914858665,3.66290101453412,0.5516965227113018,0.9477799562162391,1.448243079505348,1.591100312196348,3.09539021213928,4.935336903887429,5.279531802711348,3.0163397625508925,4,0.5,1
17.0625,2.6428678044031173,1.0817156718641643,1.9602856205699517,1.3330158406233654,1.8755664774276635,3.206411241877573,2.906365473503872,2.7544200453319196,1.697821418931413,-0.19714504538364377,1.106944648008843,0.43850711966894174,0.4882947553735672,1.2723655093833326,1.94181368596546,1.643883023398214,0,0.0,0
17.1625,2.5295856100994705,1.2349272602254202,1.439951282795241,1.4093215882702925,1.9491623014647192,2.798609202131398,2.8372344305876656,2.508031565655104,1.6421634313461013,-0.004838460948992783,0.3065468355453822,0.5179371340508245,0.560027216527827,1.0034574057055714,1.8339821824774025,1.248909140641097,0,0.0,0
17.2625,1.456179507659401,1.3387085502037992,1.099330194357822,1.3346583172499875,1.3950140640639088,2.2548522183964628,2.460439627983944,1.3690366964532696,0.4363670587523955,0.2964360027017143,-0.234000964126703,0.36677705140320077,-0.1461517972970644,0.33179911068053614,1.32325364742386,0.416590562799123,0,0.0,0
17.3625,1.088827586012386,0.9920286942820599,0.6140745240297446,0.9275550275069769,0.6821229766581797,1.1986510113268427,1.4280618934394151,1.0498217830302896,-0.060266134936474536,-0.2223616718444507,-0.7554977577011387,-0.17364792836849804,-0.8243194721125735,-0.34472452183192737,-0.027340902653877862,-0.2013296665777778,0,0.0,0
17.4625,0.8001440653877783,0.6517790949347049,0.7727153279052202,0.7279035294804764,0.8523279768103716,1.0850048142583268,0.43761089393124375,0.7634267943294777,-0.40536130911376966,-0.7035167785518648,-0.5779923064981651,-0.6515928033862461,-0.6511916753207045,-0.5563418009431813,-0.9740418803496929,-0.49364873713383767,0,0.0,0
17.5625,0.8021042592981443,0.610998763037647,0.9252586062254502,0.5370447927559769,1.3525679136085063,0.4302363503302283,1.7588341311449085,0.8090601225129908,-0.5172244366620582,-0.681299557755003,-0.3825046938526569,-0.9424419838632291,-0.02689797798304401,-1.077997655581937,0.28864964915414815,-0.3113431708063958,0,0.0,0
17.6625,0.792716095193346,0.6854332149518143,1.2323201191403366,0.6774003726355949,1.3677175815281548,0.6806985386997056,1.9149711909015432,0.8378645690625532,-0.6576496391827993,-0.5437032941997443,-0.027788869269842524,-0.7160158278492197,0.011499452278890855,-0.8994187245377842,0.757174089892615,-0.21628214049888114,0,0.0,0
17.7625,0.7066332534960932,0.8983806414237044,1.3079754030771806,0.9876811212785328,0.9218365775261894,1.7334967796808434,1.3933883936582019,1.51119423376559,-0.821968163353794,-0.26770487733477244,0.20447429654799928,-0.27778930724285256,-0.6258516322678123,-0.014821330568714357,0.2224215737346972,0.6393033259096439,0,0.0,0
17.8625,2.4234569297116413,2.3134594224351352,2.548397551448652,2.2196510162205785,3.1369339115538737,4.502879608494834,4.43103614111773,3.5841526656223692,1.2253167382411434,1.5893314482041445,1.5416249723199125,1.6308946939001236,1.3039652665097532,2.2758579063088797,3.211535797408816,3.2085574938147756,2,0.25,0
17.9625,6.917703935760403,4.872364871000847,4.329275474661501,4.431496561414896,6.151306637242856,6.603722655831405,16.187881153964607,11.197699461172837,7.832014666824652,5.912483064022888,4.223178832915371,5.77073359875551,5.406972425731599,4.423746371489633,15.717884297446796,13.555595708016835,8,1.0,1
18.0625,7.088227450974389,5.625618359751948,5.000558139892165,5.718945373154911,8.606871946152765,9.787587874986489,16.81000697904072,11.183652394698756,8.149720804309696,7.463729722931049,5.317290804630173,8.325827412182132,8.607963911467998,7.452260573021303,16.98006393627638,13.151723894775856,8,1.0,1
18.1625,4.2216008967339205,4.991207943814564,4.864634110509877,5.126378908670958,8.491515388889008,11.538065745301594,10.569969050090096,3.794184562857368,4.089740071043049,5.774396530039139,5.258552294113883,7.079099150263014,8.513786699376473,9.016068709939603,9.975000060122618,3.3324717120156486,8,1.0,1
18.2625,4.139732337740683,5.455272365432085,5.785406843070323,4.842859492029608,7.148341494686764,11.624197443194458,10.159741567901694,5.467672677126556,3.9622595755571632,6.446970354296576,6.408681589307161,6.626847048046024,6.532468845584334,8.351319446108462,9.35810158002671,5.6829719724854435,8,1.0,1
18.3625,3.0431412816830465,4.319602815702675,4.925822994919878,4.448586954379855,5.957258458019023,9.188156703072547,7.349250220425667,6.117392452079398,2.3039967204669907,4.0709409259471006,4.458184207154505,5.405565868806784,4.828800979257369,5.7870524299376935,6.51650702680887,6.905508597527014,8,1.0,1
18.4625,1.84406829129455,1.219602933420865,1.9375048183831558,2.5533670474170096,3.742465941425538,4.495011433096434,5.885614756232979,3.623074989889585,0.9215723650662937,-5.869313617492544e-06,0.8367741447263717,1.9733602174193225,2.347510757299548,2.121198608777485,4.611631682996255,2.873056651629989,4,0.5,1
18.5625,1.3507308469061423,0.6863961780125813,1.3603205099081295,1.150117842532209,1.9995679947349756,2.792136848012538,3.3650940739282773,1.4552992507206814,0.13470682257626862,-0.7154152016534006,-0.02841173546058803,-0.19387756396316638,0.3846268850719663,0.14410686420768334,1.4156984469329637,0.21148224266369403,0,0.0,0
18.6625,0.8054808159814749,0.9922264108866158,0.6546544074933155,0.44530508840618266,0.9186126761041612,0.600872754120943,0.8792096858833456,1.0946094925813235,-0.576699288632905,-0.2508720908390951,-0.7487556352736031,-1.0547812962830125,-0.6650880322987816,-0.9687891475759389,-0.5161643210548965,-0.06661951568567206,0,0.0,0
18.7625,0.679814776168741,0.9676185910924975,0.47499090626210283,0.33107970392313835,0.6941296190269678,0.654392012645498,0.9200799611805824,1.1413694390886646,-0.7780857337684366,-0.35572658910352856,-0.9220383814389828,-1.22610732894551,-0.8902312604598599,-0.9145573251751639,-0.4604283464297431,0.04223056287372394,0,0.0,0
18.8625,0.6418565614886628,0.8149249361636829,0.5507742909792451,0.6054253717488568,0.8392246564082012,0.6265822318382684,0.7266410954681367,0.6249958932838975,-0.8336311451945787,-0.5276730715290587,-0.7963139251302083,-0.8188039806500339,-0.6929164517020456,-0.9507330404315255,-0.6401326911391797,-0.538233123171668,0,0.0,0
18.9625,0.8022615167514379,0.8413408950392122,0.5801642829347904,0.6943759986344135,0.6962477280859245,0.5851505467041795,0.6852207794720412,0.6168890846246787,-0.6219689741256393,-0.4788528036193284,-0.7208772347524531,-0.6148476617295711,-0.8593715618051793,-0.942960289925419,-0.6152132690873786,-0.5862562710465571,0,0.0,0
19.0625,0.7470553692308923,0.5769672682623448,0.58776723850207,0.46968100460999457,0.749218357925962,0.8783277466526228,0.8471950881385027,0.6482268101701809,-0.7568608790185678,-0.8582941137185586,-0.6700171931034475,-1.021117495430159,-0.7614408107044757,-0.5921724089265205,-0.3872404606691878,-0.6401722987526238,0,0.0,0
19.1625,0.4743028653698235,0.49617565681816994,0.49306025754311583,0.41924458073781184,0.7108819731859556,0.8051992095157395,0.9132119755021488,0.5536631046757546,-1.0266098249148605,-0.9904119767132264,-0.8454986980231589,-1.1257524526228702,-0.852223506912577,-0.7598700824136982,-0.3550485834090295,-0.7474109609525932,0,0.0,0
19.2625,0.6682081380042743,0.3905142880020777,0.3516993052082437,0.9084372189541617,0.5999673109156611,0.3794047828487321,1.516414121804969,0.5456085678620005,-0.8038348250154698,-1.1041512519335877,-1.0032528566657666,-0.4210241256987425,-0.955820792186006,-1.171972799906449,0.2709901662073344,-0.6848001258712465,0,0.0,0
19.3625,0.60858677439768,0.8620133351630626,0.6300641357256325,1.172321818793157,0.6045521734471818,0.6026704239421081,1.4490480493777533,0.877860738756189,-0.9402034624191309,-0.4652447324951802,-0.6794906039501781,0.07438066108142884,-0.9670948460049235,-0.9538356954185755,0.14468292999539073,-0.26197006431173436,0,0.0,0
19.4625,0.9889731727842038,1.0085329269580983,0.7770820965642118,0.8555982798526215,0.544602842831675,0.7963266077299139,0.9577451327322867,1.008373555621298,-0.5133866089869955,-0.10641007682315676,-0.48008357779201594,-0.6458210853029362,-1.0131227997493364,-0.7211498717924484,-0.28427346567907624,-0.0640101924001083,0,0.0,0
19.5625,1.0223172923195967,0.8412331078637818,0.7505294043622268,0.350963928081056,0.8465274930269546,0.7987349197209443,1.096555852222697,0.8129485586507513,-0.37613710904249414,-0.4179034836669359,-0.5619054951347005,-1.2408362641398927,-0.6017425921342647,-0.7967214182912175,-0.19251092404504122,-0.4086116965058402,0,0.0,0
19.6625,0.4560118189802343,0.6132341709828659,0.7331269937559616,0.4793658582805227,0.730178098180774,0.6772152618781807,1.0877211940250089,0.8147367282555654,-1.0338790874100687,-0.8579423968647703,-0.5601238574479231,-0.9876962611021771,-0.8565220907368001,-0.9523321342709956,-0.24913387282403077,-0.3837113343756878,0,0.0,0
19.7625,0.45864428656211337,0.47507252920566756,0.7772430222236493,0.543808416055203,0.5377770972322801,0.6550650187679978,0.9136511491668492,0.6729661709887876,-1.0418137450597122,-0.9526819866022422,-0.5785495131430107,-0.8139020482478883,-1.0530097627620945,-0.9603219564097469,-0.38929152623695384,-0.6352489566716626,0,0.0,0
19.8625,0.46211887668897955,0.5784758237891777,1.2958183531576628,0.5532988668204522,0.757956421126706,0.7243545767095749,0.4514579743761084,0.41177003758332054,-1.0546353402712825,-0.7826512519263528,0.009029546623765955,-0.8313142247930958,-0.7966937114400838,-0.8770637525335683,-0.9645301270320961,-0.9316388715720221,0,0.0,0
19.9625,0.45086736212039513,0.7091031272338584,1.4272568678747113,0.6703973406043113,0.6913623485668606,0.7850525554698191,0.5019115770919671,0.7672432058562161,-1.06167589573175,-0.6177291520411592,0.43372129535898346,-0.8090060401357891,-0.8697981138871763,-0.7419306631821647,-0.9133195470817639,-0.48132447858025446,0,0.0,0
20.0625,0.4067256557321506,0.9383874023014381,0.9434840912055904,0.8874997184575548,0.6416755032092735,0.9547806783285426,1.4764777714990829,0.7126838147789847,-1.104754789524016,-0.2560402541958457,-0.19864586492313888,-0.526113333177324,-0.8350372021062614,-0.6185397182322724,0.042937239311706704,-0.6105779160551847,0,0.0,0
20.1625,0.6764450436209983,1.0732101935434601,0.5116958731456348,0.7951625828087009,0.7170094865947849,1.145084928473648,1.4787775879438818,0.5481179521029556,-0.8210024663318081,-0.014382384914258988,-0.7967842906351505,-0.6268586462006512,-0.7423483671644426,-0.47974624664461873,-0.018643495635150668,-0.7029440097281175,0,0.0,0
20.2625,0.953655483391383,0.9276738145309656,0.6662635694592068,0.7652110801187562,0.976425236973453,0.9951334498315885,0.7078241286041321,0.5493439467343529,-0.3318727910224867,-0.31443285720365827,-0.6469079596786141,-0.6722466181909827,-0.4801958662181209,-0.5959460535396385,-0.6658957311724056,-0.6993502765972469,0,0.0,0
20.3625,0.8241451558986338,0.6856064131247989,0.7695487828582933,0.7503236770830031,1.2613018638354898,0.6858317290961667,0.6485702742156382,0.4454002442940184,-0.525567890213784,-0.6535581271705909,-0.39752377204726896,-0.6590299107729501,-0.09732791218243836,-0.8242445262615108,-0.7156543713233603,-0.8429608180006801,0,0.0,0
20.4625,0.7583831332517067,0.5875921724888922,0.6003988203674442,0.8508723337308574,1.1144938747487283,0.7232824984055262,0.7499744033675745,0.8230961839944843,-0.6943430407973565,-0.7402444207900437,-0.6537441544992596,-0.47479216205419256,-0.2748821751930004,-0.8027674838763352,-0.6082721997585873,-0.2963716160505035,0,0.0,0
20.5625,0.7808782326128912,0.8553963267347403,0.5150268865556147,0.862735363309434,0.725991613096357,0.6583787549327258,0.9681468433306035,0.8418565294635076,-0.6639507298554144,-0.4095700707007533,-0.8287434536339631,-0.4517356467812725,-0.7510984352972139,-0.8862996145866687,-0.3554407697179001,-0.2798801237525756,0,0.0,0
20.6625,0.9054880900826893,0.9668688731851414,0.9841968243616581,0.7222396152087229,0.9566653445801183,0.5111339153083719,0.9930378566334401,0.9719968151207331,-0.4826191830439678,-0.21810151598740593,-0.33303645747963706,-0.604977477413234,-0.4817729553891996,-1.022884520431637,-0.3561989558363326,-0.1618382867584327,0,0.0,0
20.7625,0.9190106864597678,0.7044807401918753,1.0635706332813522,1.0079396183468894,0.8956344080888997,0.8030128254963897,0.7817663407697593,1.43875021584213,-0.47147351340850113,-0.5970859343205411,-0.1334310882291631,-0.14173561270266,-0.6035489812405486,-0.8718163876523242,-0.6259312314016203,0.5505651155457307,0,0.0,0
20.8625,1.2981865929314413,0.517294292420662,0.7085524701770028,0.9337036446316151,0.3934814179823262,0.7521947669733929,0.6152655520966914,1.256705538939498,-0.01319454617965855,-0.8573624640099983,-0.533731400587881,-0.283128337633068,-1.1432098085577755,-0.9720315296720747,-0.728640110338748,0.1816523324434509,0,0.0,0
20.9625,1.314795445915256,0.5481419968722021,0.5219167268002615,0.533941104490284,0.43037856045523487,0.5835185451862481,0.6709462143617592,0.6546993152211239,0.11297596480050393,-0.8250201695249016,-0.8339403341836238,-0.9400468567211998,-1.1203025276888452,-1.0152718483510788,-0.6125753563210142,-0.6463618955202675,0,0.0,0
21.0625,0.5850250108132851,0.5140079525813884,0.4440696850960858,0.272605860747072,0.5719840124656079,0.6739539370518569,0.7912592568371696,0.5873343220210195,-0.8374913191622396,-0.8742194669674374,-0.8876184424247405,-1.2889351297218883,-0.9619140434088762,-0.8753170677002562,-0.5384215875696464,-0.738000262077644,0,0.0,0
21.1625,0.4743591969552765,0.5735220387985159,0.5992475662957722,0.5219078430260782,0.6185021717976815,0.5218510842028015,0.8429387699370825,0.629192005927795,-1.0449197196559878,-0.7752370105646709,-0.6529021016709305,-0.8733765616728207,-0.8668157414948793,-1.0055107557988523,-0.4495204593466642,-0.5257582978243399,0,0.0,0
21.2625,0.7744604623634108,0.6537396738199834,0.4961742641416403,0.8174191894303917,0.44521449701265187,0.4112663849822795,0.8140895511150811,0.5242710353330929,-0.5907841816820775,-0.578170949090306,-0.8611377494276382,-0.40063312891025843,-1.1102643495649993,-1.1210464350333957,-0.43355413261682385,-0.6826760254211388,0,0.0,0
21.3625,0.7788892186194255,0.5446684335021059,0.4230787059011462,0.7099895636856626,0.3386663430508989,0.8220325732017899,0.6370895760868023,0.3173065254395397,-0.523675999621291,-0.7922052977269891,-0.9453525421287903,-0.7028285996430637,-1.2039886182865047,-0.7742226895366229,-0.7458013142416136,-1.054408204031863,0,0.0,0
21.4625,1.0031681405004775,0.6744430139532516,0.8667682693819518,0.3523577527542467,0.4846531619276279,1.017010674428821,1.0131459392328368,0.7313562915384657,-0.25377749599174243,-0.7355175421465867,-0.44850543623237854,-1.121103007787871,-1.0509592768501117,-0.4912826027611565,-0.41186638490201694,-0.565474172074373,0,0.0,0
21.5625,1.77627373898913,1.2981360396552952,0.9472745518078596,0.46726472643257394,0.5449285316739473,0.8316084657606562,1.179929647836611,0.9637641914117345,0.6883166348075715,0.10148648502344619,-0.3522152836126644,-1.0331488214708626,-0.9906620538105585,-0.7003708480147673,-0.07308748733173269,-0.12423468903274232,0,0.0,0
21.6625,1.7434709449005166,1.2690191785380278,0.9282262099763091,0.5477247508886789,0.48975062633860517,0.6470530539111806,0.9450784731582118,0.6587485756307293,0.5277533547704416,0.14587939861754426,-0.26764064998477727,-0.9034244761899822,-1.053531235565062,-0.90198803752931,-0.3569164876285525,-0.7531226517246974,0,0.0,0
21.7625,1.2957043327344293,1.202730116064594,0.8154755470259947,0.5475572933356645,0.5593000334808634,0.431038831124613,0.8172166076451747,0.31223587415458903,0.10273360321705313,0.11532183575317538,-0.4601542362572951,-0.8290191926456828,-0.9939148166516262,-1.1039237611047787,-0.5028141099616366,-1.0782136234812487,0,0.0,0
21.8625,1.17650023629803,1.3652574829592485,0.8111146346389806,0.7224602710626296,0.5534324249318636,0.5418738396162769,0.6856221350534987,0.6117227647413473,-0.1346011055464179,0.3410723808196414,-0.4642956449159956,-0.5950885434120348,-1.005120511274292,-0.994513839638612,-0.6392540425207612,-0.6610687522634936,0,0.0,0
21.9625,0.7501933217119917,0.8619313158663884,0.7742491150734326,0.7300175208895773,0.44231581469864467,0.5740486574739662,0.8686862088257595,0.5838927231892039,-0.7405410458722603,-0.5375944356318437,-0.5575336998924698,-0.5962204584723433,-1.120043868849068,-0.9570312275515619,-0.36130640432706024,-0.7296799276955521,0,0.0,0
22.0625,0.583466283657798,0.5648849233085532,0.3555301624964353,0.5433930362565552,0.5168750847279536,0.38946762591248996,1.0430485160161922,0.4206792080387796,-0.8705990766154745,-0.8813740815662245,-1.0317501294811893,-0.8492191552901357,-1.041178445729055,-1.1247567142972361,-0.22449283575896856,-0.9362013125030211,0,0.0,0
22.1625,0.6163385206331765,0.6837510809879441,0.6108050282920937,0.633935966630288,0.5000277279627524,0.6421494227622832,1.3259159168175079,0.5371629355837433,-0.8493355954278072,-0.7248230170090669,-0.739740559390889,-0.7068067453198785,-1.0612009148802761,-0.9768485862899461,-0.111518731856826,-0.7580642243250175,0,0.0,0
22.2625,1.0076693498101488,0.8037067558230478,0.7414720725432958,0.5893576317703465,0.6501839386681622,0.7093604336515827,1.1245915752898477,0.6986180723128762,-0.39633044932401096,-0.5743266038846564,-0.5675296199838936,-0.8304282149515771,-0.9115308345345763,-0.8817210864666185,-0.4447425311373327,-0.5891545380556094,0,0.0,0
22.3625,1.0531953778447596,0.9117904030917889,0.710951138546436,0.31853853111808467,0.8070763662287234,0.6519967661423671,0.5192771171989516,0.650849344486942,-0.24316199117794335,-0.4278269556856349,-0.5745840270440548,-1.318942059044931,-0.6881679407677421,-0.8874200931076934,-0.9134965160235184,-0.6540317219824674,0,0.0,0
22.4625,1.1219581380088675,0.6762523754350549,0.5534186190150568,0.3269689501736136,0.7002352476007911,0.6326186002468562,0.468993732851315,0.3557867695053053,-0.14314095219729067,-0.7912434656802857,-0.7825477975106474,-1.3171274143379958,-0.8161540240800952,-0.9092107072279256,-0.9614701750996042,-0.9718638374927161,0,0.0,0
22.5625,1.0598152943579144,0.6940230420847486,0.6615160974855595,0.47008652579677,0.47944388103695074,0.6965985023862898,0.32121808044345707,0.3110762014531884,-0.3481850159127813,-0.6556711492807704,-0.6432693605063247,-1.0156718667586906,-1.1001601355035069,-0.8456373843977475,-1.0843126062456472,-1.0396887607156116,0,0.0,0
22.6625,0.6268622680396648,0.842155530220196,0.6405728018075812,0.6654561641112379,0.3248550314895533,0.675745309194286,0.636991108296392,0.3642642113490807,-0.8365649423512589,-0.3453305336533498,-0.6917581246997179,-0.7048302806161878,-1.2528254822583351,-0.9119283141424833,-0.830883301607621,-0.959100424186889,0,0.0,0
22.7625,0.8270082182496725,0.6681450722841515,0.5903048049317395,0.5616696560599346,0.7929482037589349,0.5437387438870293,0.7738766612415735,0.3220794959818449,-0.5796900664856656,-0.6785117660341965,-0.7543669094908131,-0.9985945285384926,-0.837340660706528,-1.0448058316887867,-0.6321596856247821,-1.0220836727275269,0,0.0,0
