t_center,rms_emg1,rms_emg2,rms_emg3,rms_emg4,rms_emg5,rms_emg6,rms_emg7,rms_emg8,mean_z_emg1,mean_z_emg2,mean_z_emg3,mean_z_emg4,mean_z_emg5,mean_z_emg6,mean_z_emg7,mean_z_emg8,channel_count,frac_active,global_active
0.11699999999999999,0.3148880079126481,0.7310987070173994,0.8204555926696712,2.7733909157689807,7.112175232497104,5.329443610769558,1.1873461435047707,0.5604022222200358,-2.27225330280183,-1.9351456322412288,-2.3167480395572775,-2.1944128832223133,-1.4673443174662237,-0.5889333766337445,-2.684640200133313,-2.089942537091568,0,0.0,0
0.177,0.4729963507857405,1.016263214667237,1.648908676112495,5.063609833995825,13.343766779396928,9.490166350100647,2.203331551382324,0.9288723960594818,-2.0886816093053095,-1.6692412568745005,-1.59602308396094,-1.0111656268860705,0.4162137114263595,1.6284822080270562,-0.6346049040529996,-1.4614773960156817,1,0.125,0
0.237,0.7745153749525584,1.0101978178090134,2.3161139802297046,6.354380256436089,16.35147629502028,11.183096203523474,2.5977025033444936,1.0868617943524364,-1.7146541541910254,-1.6699303652556206,-1.0416952958113772,-0.35943658350273083,1.3938389469462784,2.5946957398165975,0.19860474848515752,-1.203461442142525,2,0.25,0
0.297,1.1031153493759331,1.2940869814574687,3.0376107257522014,7.7318902519312,16.85973779406045,10.791890974799628,2.6765133880620118,1.3523660068674792,-1.2747780962599096,-1.473155540242465,-0.5110732147355562,0.21935447599362676,1.5317745600388062,2.4008492225042635,0.3286826619300983,-0.8559848903719637,2,0.25,0
0.357,1.0973723181988284,1.5026705089953853,2.9743313021560556,7.852174095287387,15.151856725030708,8.64891020280406,2.3429421291170627,1.3851220098791095,-1.2910237652513652,-1.2805742849093524,-0.5838336433612973,0.2704246425403583,1.0167396987473587,1.2368270559743826,-0.3873458617554857,-0.8260495824004116,2,0.25,0
0.417,0.7362059453069083,1.0857797937535987,1.8396732916327676,5.68565073147179,11.76673275368029,5.093959039164563,1.342703485928053,0.9129201544037603,-1.7821799275097694,-1.684185111132072,-1.5245866422205714,-0.749115162709023,0.1289431579507129,-0.39622615138524925,-2.1958340481282055,-1.5677624041971203,0,0.0,0
0.477,0.8304285647685818,0.8167952483722462,0.8707742311244455,3.551051894521684,11.51685918840876,4.493893144564604,1.1856486363454792,0.9550510565488524,-1.701214368486826,-1.8535358552624863,-2.1227648975890143,-1.618226870297425,0.07543948051925457,-0.6202789840844453,-2.3866444868933354,-1.5200046364654642,0,0.0,0
0.5369999999999999,1.3810967079916765,1.073937441199661,0.822600225320539,2.781012270126522,10.934533373466854,5.383773579562242,1.6310538134679053,1.4449262902413755,-0.9623203668028113,-1.6252710252577012,-2.1469613231888625,-1.9267992218275827,-0.13468346639094067,-0.1803583096701095,-1.5127761545277858,-0.7356099580330193,0,0.0,0
0.597,1.4156838861668475,0.9654753745904149,1.1815793332147486,3.1424885392434185,7.253489376494255,4.23282318043357,1.3217191196751292,1.4231725307312413,-0.8952068649390427,-1.7217584716752234,-1.9170798514620238,-1.794841800237595,-1.2241675422313225,-0.8617037009551253,-2.2023689293869655,-0.7531801081708744,0,0.0,0
0.657,1.0587819245375019,1.0920062491046778,3.2102258175901417,5.999518508421499,5.995187555988871,2.7558121505477287,0.6702564310862434,0.9977377743978355,-1.3447274278817194,-1.6625071111165568,-0.6981133722138533,-0.7232262994045979,-1.488051165770976,-1.4331189418855637,-3.1600630928957734,-1.3731292999764741,0,0.0,0
0.7170000000000001,1.4158270197520895,2.4286554686363813,6.130218988468339,9.905586943516617,9.557819830579765,4.691336079143268,1.2784818635717599,1.0644640099990839,-0.946443169236144,-0.6810377501254385,1.608233011863284,1.0800753023772616,-0.5305453101357925,-0.5973985113852244,-2.309821524037582,-1.3063542024404804,2,0.25,0
0.7769999999999999,1.9982316974197776,3.496330222743973,6.365159178414453,10.660603666964054,10.543334180370639,5.952834033770806,2.1012272332127684,1.9054089119379294,-0.13047632102924833,0.35334548222345014,1.875177991390296,1.5136984360751784,-0.1917369796569975,0.1204196523417269,-0.7308472156679203,-0.1721554598490437,2,0.25,0
0.837,2.491910871974864,3.6004595778333073,3.973179953385043,8.79229251042058,9.622855364911032,6.346580049142829,2.527248731963586,2.5915940914337634,0.5043318818150176,0.4547975814287697,0.05201852932226636,0.7005538214114767,-0.430255503161824,0.30771765633200693,0.0727302587324449,0.9185086165688959,1,0.125,0
0.897,3.343266044006552,3.6954426534508777,3.8054000105631838,7.4668442918306654,10.066995436444447,6.299630750880419,2.7366029069623994,2.77831150284421,1.5433795702143964,0.5091457497322395,-0.053606706792523016,0.12449280285721535,-0.3115923800105026,0.2830071804764755,0.4309662413888482,1.212218769160873,2,0.25,0
0.9570000000000001,4.450557458117662,4.826628340641492,6.189044111996319,7.814217519317088,11.71953453295326,5.9645780129168084,3.431313663284842,3.039680817525693,2.98132692099524,1.3976985357273308,1.7246113956781866,0.2631384793916941,0.11823199986987365,0.12796217499608287,1.5367815748726261,1.5626811046071396,5,0.625,1
1.017,4.405415666669334,4.819213070946619,6.637892731121069,9.625672236505242,15.244996924739759,6.31673074190604,3.8436194990386543,3.323608135400432,2.9080174172103614,1.3869055388136056,2.155980426507651,1.061794061614888,1.041532711765108,0.2920539027738997,2.301489448307238,1.9854481040608751,7,0.875,1
1.077,3.296601225660908,3.5685569750909445,4.690207020655295,10.379193336117138,17.19437833432847,6.755098950167715,3.3500117244344727,3.277629950228865,1.4939208768225818,0.39031622729489585,0.5986003541401758,1.413143054646011,1.6188945500518115,0.5023054089536474,1.4198919099313987,1.9235664140774302,5,0.625,1
1.137,2.890055943003139,3.9675905046046656,4.305131075222002,10.14279332096827,16.81794258911259,7.60591844504226,2.7418734452509557,3.1544407875060556,1.0377640871363558,0.6876748045684445,0.3576097564169754,1.3096777040073524,1.5195559679037343,0.8887814250551496,0.43658291731735993,1.7486932791631842,4,0.5,1
1.197,2.6390797439982188,4.558960992285795,5.405536536013661,9.469094500293753,14.249895271550553,7.393223238264991,2.4520591855594627,2.902173886952663,0.6505150203791135,1.2196145457428882,1.2455755700727809,0.9977376594802352,0.7394831976395739,0.76885869541319,-0.05653355106156346,1.3750894010655097,3,0.375,0
1.2570000000000001,2.0845144946018412,3.92529129780439,4.796943375290044,7.655494925440562,10.402168666654418,7.506033584683088,2.7174658247228285,2.8792575660266064,-0.07218798542572437,0.6690538644484535,0.7510539418029332,0.15543137069671883,-0.2653874255058555,0.7684417808383072,0.31033812500398505,1.3152621642602356,1,0.125,0
1.3170000000000002,3.821321138838633,5.381826121270207,5.636814134704625,7.10485838577575,14.756483825530958,12.107180183188264,4.690888934460391,4.53354354629157,1.7118294714886992,1.6191716146408155,1.2231613804484824,-0.06456333951762082,0.6937874064110923,2.7672883654066216,3.3264463651219818,3.392635374363026,6,0.75,1
1.377,5.128969646720961,7.202364193820958,7.628356346281697,9.716012955875462,24.916501246060818,15.264622976817654,5.643772744566278,5.313325734912895,3.8115440713701934,3.325072477675935,2.8598006560836304,1.0432294403997313,3.4847341339081908,4.507196568745909,5.283262816826271,4.717853526052022,8,1.0,1
1.4369999999999998,4.078193717202381,5.825636739887024,6.466174676140479,10.532019700150357,28.000363196468612,13.44148451805941,4.21084036344558,3.84573040590803,2.1884501913286036,1.8819970244046393,1.8006530499544915,1.463149349537389,4.4638916545251766,3.4955659483541948,2.4089764206832087,2.2824414821227577,8,1.0,1
1.4969999999999999,2.0430889708062057,2.6924988543068866,4.043693260156321,9.138858002545229,20.247649146348717,8.272782976131172,2.123899895297898,1.8918297145834886,-0.15946096048780034,-0.41541325731377593,0.258531871491499,0.85358951809381,2.021777676505033,0.8462645727786261,-0.7222655023973309,-0.13146167447392176,2,0.25,0
1.557,1.3314948358532437,1.7721676575737275,3.634187294680301,8.48050541914074,10.029715698657617,4.04434272425332,1.6196169454756815,1.2643399435619644,-0.9844438875465796,-1.040632526758838,-0.05375567256116292,0.5824419845865699,-0.4144969470397701,-0.8062002523203393,-1.4755568986873258,-1.0022792664069327,0,0.0,0
1.617,1.32811247802018,1.5354269330373473,3.1696271307682484,9.464016330252345,8.568280982540756,3.6522789350283156,1.8096575908918584,1.3431614064228565,-0.994212038076777,-1.240115726670693,-0.39215153902923,0.9942460684989495,-0.7365830025130785,-0.9634120167392671,-1.1774265214510484,-0.9358570431044823,0,0.0,0
1.677,2.138082007000437,1.8333440388045428,3.7036328330383035,10.483213906961009,11.881849368549902,5.438782631710294,2.421098112705271,2.5407917780435465,-0.050253933657535055,-1.0391665732184623,-0.01790288503880949,1.4639706649787587,0.11012167444037906,-0.252631614409849,-0.1662596672837867,0.6449743109074562,1,0.125,0
1.737,2.8136155805863297,2.427386489739419,4.023362603070133,10.182194292048656,16.791269801143194,9.469281381308402,2.8624463269992746,3.2497514338821722,0.9211769801112496,-0.5207160071438257,0.24887208594163668,1.328329184254856,1.4390511429904158,1.589098654104436,0.6443984904637924,1.8639864879859838,4,0.5,1
1.7970000000000002,2.673789616330045,2.7190451291842908,3.7885042186992033,9.153325347876848,20.614142008352683,11.196112208084896,2.694376631552165,2.840424687905276,0.7291649552648382,-0.2670515765001716,0.07064612572357488,0.8711606847291211,2.5272280339940445,2.5736203575219023,0.3388085721724061,1.22253869524999,3,0.375,0
1.857,2.1520442313807937,3.0445786671859425,5.072705680435962,9.582918096568767,21.36891918790098,9.76103475006241,2.5806281353662306,2.312921239404685,0.0776849588929865,-0.0058895003244647205,0.9218286460995588,1.0315134116658762,2.751442032231875,1.8791220092161496,0.15405096309678423,0.5373001638240139,2,0.25,0
1.917,2.068381774027122,2.9547340593071887,6.673047834394637,11.952472076109268,21.50798515818974,8.415589324238129,2.7049781448292096,2.169793305515547,-0.01819137409770594,-0.085700930364631,2.2190664252610603,2.063509178368662,2.786351517353674,1.2753287739664718,0.3721843569588909,0.30847811502169115,4,0.5,1
1.9769999999999999,2.163712316073201,2.669162961500211,6.578278863190822,12.095199991848629,18.78183584443961,6.600857612390471,2.652346086958521,1.6661492902413018,0.10616674359839207,-0.31268295138198343,2.1489901756766745,2.1324644275945115,1.9059250453058116,0.26322111237434337,0.28628533679260204,-0.45701649840952036,3,0.375,0
2.037,2.7244975146882258,3.826672581334145,5.43353187525634,8.929544140667378,11.323587879850164,3.629101596305936,2.6371492153904144,1.619825521321157,0.7520731540742615,0.5243440661173522,1.2964920046335329,0.6375747285424586,-0.2244494860588279,-1.0541807293774335,0.2632528306531021,-0.4988031555565684,1,0.125,0
2.097,3.4368455230469643,5.062088105606585,5.2392569389240125,7.485406473859792,7.785244473383144,3.065399299449335,2.708267587148932,2.229476944523924,1.717658576300112,1.6350294030881452,1.1537820357128743,0.07320243756162226,-0.988322290989264,-1.260060704226074,0.37373347707285337,0.37975885045619107,2,0.25,0
2.157,4.588980365505887,6.627972384419729,8.452577633337484,13.858885521935246,13.432950008249614,4.972663158678946,3.6769381184066763,3.6158532649321744,3.0968811999303303,2.850530890908731,3.2326831504626554,2.498743064482931,0.392785622003474,-0.45712186976470476,1.8482504481958746,2.168126638223366,6,0.75,1
2.2169999999999996,5.695023954651099,8.310060471148082,11.154746632454787,18.774851789333322,18.533583839937272,8.290638877455729,5.069556641851281,4.976778175192226,4.592735667179699,4.288247694410688,5.542754736956758,5.016493780262831,1.9387507049387562,1.0876985633330543,4.324923180097724,4.275028530770469,8,1.0,1
2.277,4.982888156726208,8.499213521465387,10.193508073827545,15.67414710784948,17.741695048950085,9.72673830012828,5.609520173076056,4.791249283220945,3.519244091018672,4.472601112972579,4.774697786830964,3.312582034186446,1.7129356756761271,1.8993445804486806,5.340734997296071,3.99260966210659,8,1.0,1
2.3369999999999997,3.57382175795395,6.99937645579265,7.028169801075437,8.137562476199465,14.283216834089622,8.113444543261858,4.7214701080438495,3.427337831855141,1.9030466424915815,3.1290469769232505,2.336688406204762,0.2339198405528724,0.8255139716094355,1.0641737044415402,3.6087050465684194,2.0181381463704873,6,0.75,1
2.3970000000000002,3.411058024088331,4.494785887775242,4.503729055197215,5.323127311344591,11.822528184557688,5.294573620862178,2.973458208479853,2.3696774245169445,1.708448791023276,0.9084422344382935,0.5273801173620208,-0.8116894463233967,0.10750776064134858,-0.30834408901249416,0.5527469877939715,0.5769355634252065,2,0.25,0
2.457,3.0918639048998307,2.241029680130696,3.9356821731736504,5.111409741521419,8.119364739286741,3.0040679052703037,1.6901358513415192,1.8847591278841904,1.2814497104750513,-0.7201063041761327,0.18374372049440876,-0.8999045260641726,-0.9187523551596084,-1.3331079947305307,-1.427137522284002,-0.07010155470094294,1,0.125,0
2.5170000000000003,2.5766124834660356,1.747540118382436,3.826866337366294,5.730804922958344,6.489678319669582,1.9001421705625003,1.1671867491122032,1.658717754682348,0.6166230304147433,-1.066310389551725,0.08920703737990567,-0.6362694152083722,-1.284593367089882,-1.7982759268637842,-2.2691655974603244,-0.3920670185716615,0,0.0,0
2.577,2.623575790405348,3.2591607262372007,4.172423282975331,6.205738498999313,7.666694258712043,2.6163271748442867,1.382509290192811,1.8138016372935002,0.6441800642612611,-0.0707967790943211,0.27409455138564104,-0.4188499448042897,-0.9736294619878296,-1.5581622367163857,-2.01580692407573,-0.21794896388095222,0,0.0,0
2.637,3.7482585106155804,5.218075206875172,6.032398493066037,7.29082668894964,12.039641416891214,6.4097263596321,2.8866523778939075,2.9782597487141462,2.00952569276572,1.6681468123498426,1.6512085495617805,0.019218603522015265,0.07282361894346129,0.018944402253944153,0.2899607217528187,1.2926655422680173,4,0.5,1
2.697,4.250545578314931,4.947383475298427,5.912713265459854,9.628521647424106,18.300885012263652,9.223401832984145,3.890655006509155,3.9651830662937075,2.7728849601205767,1.3834514072874278,1.5455541316881005,1.0364643529128805,1.8201702030802471,1.6278190281146125,2.3724054870075064,2.876621056880887,8,1.0,1
2.7569999999999997,3.3292178343621948,2.6826013229948313,3.7800827737918525,9.827147290148043,20.448862197671154,8.982299496743524,3.4782242548608293,3.6732519508076966,1.4212339511825063,-0.5320169124676072,-0.03284576437102943,1.1158679346545002,2.4818910851639457,1.5158473792717915,1.5719854249047556,2.3823102236662206,6,0.75,1
2.817,1.936262771058242,1.5619361721077687,2.818795949496523,6.505891634919953,15.829206117983713,6.346278988376587,2.441889865054565,2.481073803823726,-0.3160674134303055,-1.2545975774686673,-0.6445584571181023,-0.653823509880422,1.0339228395079398,0.147189818299394,-0.14211278537283564,0.6445760630415542,1,0.125,0
2.877,1.4410322298721945,2.777971420943518,2.7951769429084385,2.375897420017983,8.938301029498417,3.7109917469870695,2.4503043031894762,1.8267342402499127,-0.8270376043074016,-0.37019908143072056,-0.6622753902870908,-2.242921895391035,-0.703786190043442,-0.987637486458714,-0.11318435436881095,-0.14785999836142502,0,0.0,0
2.9370000000000003,1.3492635763379812,3.5847369062457166,2.9368132080627287,2.1855125203810473,5.6191992559860235,3.5657014654139774,3.0095420898890826,1.8759642898557112,-0.9622005162178192,0.44369177418272393,-0.5678331184642983,-2.252976153367957,-1.5648615183239036,-1.0227300877574188,0.8775891472624698,-0.07641563192646621,0,0.0,0
2.997,1.1742387809427262,3.900154439640379,4.054088874509925,2.97341578412713,4.131970274707027,3.698156225580644,2.735304102575231,1.869088837769175,-1.1739504999091679,0.6985745184148208,0.19523059535952383,-1.8467235092959546,-1.921383209343257,-0.946899295494021,0.3318386515136244,-0.08659456886569074,0,0.0,0
3.057,1.8159783388750066,4.864765022558784,5.987767663344967,4.952364024994464,5.788926295019703,3.4827299758993093,2.1914103045806725,2.139393647541998,-0.4708402172949928,1.4529250845388582,1.642462156495803,-1.1262834680174778,-1.5386159779589443,-1.043797201014649,-0.5188289271621306,0.26393857825351813,2,0.25,0
3.117,2.8034549110574956,5.810721094531789,7.921622436423537,9.242533228585861,9.992393789956498,4.365025209150918,2.4595232228188855,2.612904717302393,0.8466075482138158,2.2632867339405056,3.138732683767797,0.7002903128427591,-0.44249498802471204,-0.6571988599332778,-0.06468546256198558,0.9546239265101911,3,0.375,0
3.177,3.3069715349948767,5.757271278267365,7.829062248052773,10.4467150889695,11.820993950642826,5.077038270545119,2.6792331078304166,2.6349067706404403,1.5752863450446597,2.2215731372400422,3.0594410179783176,1.3964872013353835,0.156970133969036,-0.2922996559816476,0.3399758319275727,0.9964736129803007,5,0.625,1
3.237,3.2699837181727642,6.0010015779976,6.594032637522349,7.769835274212192,10.008570125477283,4.709498060405699,2.4779929664297056,2.2415589134070633,1.522878072688413,2.4057579175237733,2.1794931771279735,0.1537586344436705,-0.3679360747964259,-0.4766381708048177,-0.02277404262541501,0.42747065738440987,3,0.375,0
3.2969999999999997,2.758151044857494,5.957456934972451,5.377143716822042,4.769882946500266,6.620099871568402,3.812451453243229,2.336180424531869,1.9449255693059477,0.8111363853991415,2.349609600349615,1.118154060269924,-1.1424221774465713,-1.3647612847601485,-0.9032220335945035,-0.25615945817025326,0.019362266344742404,1,0.125,0
3.357,2.117656008337319,4.407840815008317,3.0189145180973727,2.847985985778627,3.757560319302526,3.5905879518016928,2.5640381791831692,1.7799786653474434,0.03534001244326997,1.0060409798431358,-0.7999242580017881,-1.9310905142180381,-2.048576667067984,-0.9987996299552925,0.13132531279850962,-0.21943766332799156,0,0.0,0
3.417,1.9908462489281682,2.8490728780274783,1.5527361187415094,2.376989085213623,5.510558511945096,4.427782775540294,2.3889673638170588,1.4559497575495761,-0.11629794649986902,-0.2063582264661804,-1.6236534033631775,-2.108102774638645,-1.6549461512635961,-0.6181055670292874,-0.22153211114553373,-0.713520901216894,0,0.0,0
3.4770000000000003,1.812493097176535,2.1723768410062214,2.6430297897997184,4.448590867049782,10.475482900386904,5.767175950060028,1.7920297425198723,1.1234519443633917,-0.3632219584092596,-0.7139718254410274,-0.893421773199231,-1.3758452881554455,-0.3519813652552735,0.0076292959893141015,-1.2316248374827652,-1.15883298686989,0,0.0,0
3.537,1.6873524168414153,2.0072972930224613,3.5070079445015927,8.24497409148748,14.571250561228213,6.537157925778349,1.7673786491149048,1.2223252957586466,-0.5134257089073718,-0.8449374821169165,-0.1515208579852775,0.2985988015880973,0.8729572074465217,0.39544747955218895,-1.2482930980160007,-1.0263542555438547,0,0.0,0
3.597,1.8887002833144322,2.032917928487434,3.061491632254229,8.847228532323191,15.124304217742862,6.590598552131451,2.3940326543204726,1.437280304423752,-0.25355776722124873,-0.8248259466778424,-0.5398524469663295,0.648715034729955,1.0557738654767705,0.4195323056624163,-0.2148181174023427,-0.7061488221244373,1,0.125,0
3.657,1.717181631521185,1.9134478976379699,2.081137098643123,5.729895033639332,13.570465615026286,7.482685291525296,2.6801057846561798,1.3079567632783917,-0.5127823314549625,-0.9409233859118565,-1.2164800935762898,-0.8236187851410901,0.6349261416335809,0.8193086558009944,0.30351385362413724,-0.9235581847935048,0,0.0,0
3.7169999999999996,1.16934936684697,1.3755264281891182,2.239440664605272,4.370612171820986,12.04264939235363,8.274143251381952,2.1740453488244653,0.9724588472001587,-1.2212154289967947,-1.420495354604179,-1.1019195714305468,-1.289189386819721,0.21670554789569704,1.2172642242004723,-0.6462599848971927,-1.3960607285598743,1,0.125,0
3.777,0.968951012957051,1.2052307612941215,2.595533763055406,8.170544928669678,11.660647349486114,7.143062885586782,1.7582699052635211,1.4183268825392952,-1.4366157612778379,-1.5362700760635397,-0.8144470505389091,0.21352464793722695,0.11698302859098768,0.6255098197985504,-1.245402939042552,-0.8729841244526098,0,0.0,0
3.8369999999999997,1.1732534466440465,1.843036789314269,2.3871939852387,10.249680668078357,12.5279580621462,4.966578054798012,1.7123151904042615,1.7472533688038447,-1.176799740642668,-1.0235313500899472,-0.9829010990868103,1.330954995998973,0.3526297732389883,-0.39640352334323675,-1.3468525685697823,-0.2907309449742283,1,0.125,0
3.8970000000000002,1.3705899168118456,2.3381416621115325,2.1224629450824426,9.058960564875683,12.26381992852212,3.814418807725466,1.3977843824035532,1.4497069757495198,-0.9182119227166575,-0.5832054560368709,-1.1775968594298643,0.7946715020060083,0.28221224545560825,-0.8980866426363838,-1.8874334220569118,-0.7302813665857335,0,0.0,0
3.957,1.7774624770671394,3.2816288254445207,3.0765712665786222,8.016931166078473,11.185842948302291,4.304433538724131,1.7589619851936635,1.4948958725708386,-0.4285711626800577,0.12342207930686483,-0.5528040854688361,0.37890681864090675,-0.008772659231902222,-0.6786957020635024,-1.3456279227716028,-0.6666315559379338,0,0.0,0
4.017,2.0062899499455358,3.927425669409376,3.90842758480304,8.167617218297881,9.564297898411779,4.396272804968716,1.9697918417948759,1.7946095337842736,-0.10298354317410842,0.7201490094174341,0.1559273067032351,0.44617347131852264,-0.4719224003924347,-0.6264740942248724,-0.9065209272790855,-0.20000577931706998,0,0.0,0
4.077,1.7638452780565317,3.4918353710775687,3.219007860924947,7.265528871013151,7.378802267478986,3.4228983887716824,1.5294560054458801,1.6547975515264126,-0.4262336585305491,0.3406506798338762,-0.4797530716289555,0.01019716979508197,-1.0552161659440003,-1.0919745541496049,-1.6811150291884498,-0.41138168256504487,0,0.0,0
4.1370000000000005,1.5332487275700655,2.6788138987465557,1.838484617727421,5.261938733824622,6.239130807360839,2.614233602016752,1.226348076862743,1.335724825494167,-0.7034699397018097,-0.3135522999695353,-1.426835796925553,-0.9045501540576262,-1.3502145202563163,-1.4628870234852627,-2.1422295062771055,-0.8577852604982198,0,0.0,0
4.197,1.439738072897417,2.5201328479060727,2.3605657734767584,3.7495087692119657,6.568077111587558,2.1512285273261615,1.3604183497133848,1.4196350542608198,-0.826766011354266,-0.43998488955525117,-1.1043679963462094,-1.5077536029222092,-1.2637003823422501,-1.6748830323843273,-1.9287528604810735,-0.7549687702478942,0,0.0,0
4.257,1.376164630335894,3.1260944890907787,3.5000359376568793,5.821029548375091,7.83178126327682,2.7829952024358864,1.7107011758331572,1.8772314543594972,-0.9058700201399179,0.041792645860516266,-0.18012997634800143,-0.7859824855918411,-0.9256620951274731,-1.4273273350236695,-1.34441398148428,-0.10809047959359037,0,0.0,0
4.317,1.4036166668371264,3.033421452807925,3.2669707765419367,8.72745763202063,9.400325749142558,3.9245681254481104,1.9983869872471751,1.9477455371092387,-0.8701303803652314,-0.05221082133584678,-0.4108043142531907,0.6061803674863006,-0.5010453177497799,-0.859764031721884,-0.829827927104067,0.005975026713524678,0,0.0,0
4.377000000000001,1.4150869099901144,2.241421386843423,1.9246201542570809,8.585536121998478,11.204997481037834,5.399868033676458,2.44006750011355,1.6242543807563117,-0.8547034963524746,-0.6780855179672275,-1.4128161199525608,0.5750035842970425,-0.01746738058567938,-0.195465488166969,-0.12011877442856052,-0.45294101864728414,0,0.0,0
4.436999999999999,1.4887557417368884,2.5492722085696005,1.882814581069608,6.9168603613156545,14.419197660528503,8.555566364799327,3.2780770691520873,1.603234671135126,-0.765049558268553,-0.45159260275899205,-1.4129612946478671,-0.10858959325784112,0.8191552150078886,1.2044210394819757,1.283210459169677,-0.4746682975692598,2,0.25,0
4.497,2.0310284287036633,3.1300613240926385,2.6384089146586103,6.357041818763545,15.875930237979366,10.772367049364693,3.5865175086046563,2.041405653083514,-0.13913847491632597,0.06735498483757997,-0.8038403919023809,-0.3577072631355436,1.2584327195513942,2.386127488355853,1.853722333964827,0.12421539229605023,3,0.375,0
4.557,3.0283943210620117,3.5780113325121183,4.1609880252957785,6.563975520907189,14.005726699537917,10.292590526842686,2.8550437752256266,2.571942687729937,1.1293305181743813,0.4156081489663584,0.22105723123331492,-0.27176941851710595,0.7361636588226653,2.1524974265763475,0.4785925121964055,0.8924276415521066,3,0.375,0
4.617,3.8225880699771184,4.976674165019975,6.2292864131132175,7.380648953858299,12.151133604970074,9.102571045287894,3.2894725080410123,3.286837521684976,2.2173521308946946,1.4883369918864942,1.8263340967733628,0.09607944014889679,0.2546473957790708,1.6101819450926225,1.0238526024732597,1.8835683212948247,6,0.75,1
4.677,3.658258501230784,5.812095851676523,6.961613241237662,7.618066122871865,10.06679126925813,7.799641863653641,4.798499989408977,3.6765213369700045,1.9805690726178655,2.2703476498248896,2.464810797572462,0.1971335603001171,-0.3934453920213025,0.9245455972479983,3.803716908873064,2.4855731850396103,5,0.625,1
4.737,3.109544070941109,5.535840630754542,6.472580357546481,6.151726833733566,6.028190356058847,5.17413961289923,4.784308224627659,3.601551423843205,1.3113568509675562,2.044977041574453,2.0950562902812253,-0.5684734570654489,-1.604804906449316,-0.4089213204211448,3.8411725443731153,2.38338456816117,5,0.625,1
4.797000000000001,2.7672339920458175,4.698482452061113,5.456216614241072,3.5731321179624222,4.1693340317852,3.78070490690035,3.4189610151861807,3.248357366285177,0.8571329585520399,1.3074926937512432,1.2835580717261188,-1.6333684255480543,-1.9702370397814917,-0.9307197597688529,1.412133233668263,1.8546487906532916,4,0.5,1
4.856999999999999,2.563581496332398,3.33213566108498,4.107042452728493,3.147001822412597,6.282715373226936,5.026918195428942,2.538131560214749,2.986318527531848,0.6117210825788356,0.152791790035486,0.2858296839497753,-1.7799861715961829,-1.3730588296685997,-0.3480917652440822,0.06555316399591875,1.5002880430764216,1,0.125,0
4.917,2.9437915291215977,3.1225296074118276,3.5589671251620407,4.332248609415533,8.404641748106265,6.336423203404618,2.962324592937123,3.155527926278249,1.0856618347565912,-0.0037460370315331635,-0.0976553195541292,-1.2764328923228725,-0.7809811864091364,0.28847990828833353,0.7591545784877266,1.7465248026565305,2,0.25,0
4.977,3.607421802988483,4.779192610295146,4.224221644269047,5.4076026906579795,9.48209391580732,7.4290617874594504,3.424467637350236,3.257562289073766,1.9276717107011712,1.306573998425971,0.37147963931921546,-0.7795405302007808,-0.46780819676620067,0.8118314843458498,1.6061661507542266,1.8929774802257893,4,0.5,1
5.037,3.336216388757214,4.867654788088947,4.24130343704269,6.537940722467505,9.621395917868817,7.786877534431103,3.1601929758886405,2.664589665753576,1.450774239503972,1.381976647243927,0.38307943074412126,-0.2918238567502858,-0.4281857738303969,0.9837059356945569,1.1116345696929553,0.8666872766532633,3,0.375,0
5.0969999999999995,1.9789102980702817,3.1254587836288126,3.5052947612167684,7.264524049319314,9.387598830974438,6.374293029178517,2.360514266782054,1.5056240714336653,-0.34797990622190805,-0.07456011210118879,-0.14256584772182213,0.0490414250068869,-0.49319429512331164,0.22993230431060283,-0.30245683735502854,-0.743087969522341,0,0.0,0
5.157,1.4538969601021787,2.7814953634621076,4.180920068944147,7.998725338743926,8.89003149461711,5.224285607915252,1.647840615399283,1.1836180523159165,-0.8535539070465915,-0.2887951397203699,0.30161610581248993,0.34660627277709555,-0.6276578844908924,-0.2475350835653206,-1.4583236864799707,-1.0861837255445776,0,0.0,0
5.2170000000000005,2.653816383413615,5.152648659087049,7.362004386063342,11.037104681902976,10.239877513484812,6.525768552849051,1.3665895871770213,1.774439852146759,0.5202978799278969,1.4751725430600242,2.4638265659116545,1.5900337842597618,-0.2977046136232771,0.3603099879239569,-1.9095675611614944,-0.3019474884693839,3,0.375,0
5.277,3.678137215397151,6.458602789881477,9.496217792341001,14.719581979911279,14.327104165215315,7.00688033040114,1.7893502664727652,2.554094101857355,2.0103516922967977,2.7672481718378585,4.33148799944563,3.279781961775902,0.7713844110768057,0.6200255641975299,-1.28272679451832,0.8330507547384486,4,0.5,1
5.337,3.4498653911019392,5.228306739544351,8.011160992681218,14.273377172130289,15.741184203349302,6.41019693388042,2.233643207394534,2.719625203310071,1.6743667676034086,1.6030601050126343,3.0067685953503367,3.020845529717842,1.2061683934589602,0.3338652526503947,-0.4415839229005017,1.104892122157958,6,0.75,1
5.397,2.640670873248091,3.521355973393338,5.406183002327833,10.197086236446015,12.603984591937575,5.430341231407101,2.167405489219235,2.522680973833815,0.677423296148405,0.3503537689307658,1.225656553116122,1.2142282968844282,0.2980964203822851,-0.1494430600289756,-0.5462825845931139,0.8287000856825925,2,0.25,0
5.457,2.9646304815938036,4.193710488157322,5.821464386807848,6.990965237254415,8.784025424041564,4.250301108785927,2.1833728633568104,2.813730980631828,1.072829725650063,0.8742118885034892,1.558722853585385,-0.13375893086107296,-0.6875300330368428,-0.6935424903795097,-0.5198663656267816,1.2369383066892576,3,0.375,0
5.5169999999999995,2.9774833611373173,5.081218489892,5.793000241161197,4.511997060893301,7.447729237910528,3.691104096816799,2.410985002277657,2.743948143836856,1.0708357519298337,1.6721937974911583,1.546322392284183,-1.302134254327024,-1.0191411826993073,-0.9434488862265011,-0.12304370791072994,1.1234253212713594,4,0.5,1
5.577,2.232776359920388,5.966680097797098,5.218004052711886,3.3632000983397456,8.537600679018086,4.2404783752858455,2.7708019889405224,2.434332290401546,0.12901109010028147,2.36859614621447,1.134487491869619,-1.7257251075453688,-0.745558623033566,-0.7223074917562581,0.4472035139496862,0.696340113175649,1,0.125,0
5.6370000000000005,2.9552136988734343,6.601551843628813,6.489084718043501,6.82925213633757,11.671815778474274,6.738512592650025,4.127171959298553,3.323054502243482,0.9221004845515757,2.914925589281252,2.0430533276505924,-0.4121107502108256,0.06902448101890406,0.36370369809275854,2.5645842747299885,1.8352596425906664,5,0.625,1
5.697,3.82967084574142,5.760241176744487,7.488453745466481,10.22156127932753,12.965959179622299,7.719688671169605,4.990862168905024,4.082647120020052,2.209534932811002,2.1550173321839856,2.862867226515904,1.280216665967376,0.4582381398927451,0.9196145462184346,4.24807117087557,3.045275271391912,6,0.75,1
5.757,3.0627039697314906,3.943558872923368,6.884104686536707,10.028883973640442,10.026384757218041,5.51340579204742,4.297572711603674,3.5203839400425467,0.8768568422420923,0.6262949986104428,2.3668729432876745,1.1963804687675026,-0.4504268972228076,-0.31567684061134954,2.9587964842182415,2.139704353997167,5,0.625,1
5.817,1.2473479538760877,2.510195636959647,5.06830284077191,7.072689741024597,6.097873637467843,2.7920992714190263,3.039275614799395,2.426884902309602,-1.4838851013981955,-0.4819706534982246,0.9195069817759389,-0.12489639972621853,-1.41302656290589,-1.4062525036496778,0.8706801168878612,0.6651933412073455,0,0.0,0
5.877000000000001,0.8683291938922197,2.1703131770016135,3.730458748630853,5.5971485757186406,5.30819227499519,3.238892993840864,2.226821788588146,1.8976155232416432,-1.7779308612709412,-0.7180808201324735,0.03025963702527108,-0.6896138643676079,-1.597252124784876,-1.2013401606006744,-0.4942994480963821,-0.06696148762411748,0,0.0,0
5.936999999999999,1.5591267743484594,2.6053363448414784,3.60363867709078,5.951523732932509,5.659144928556079,3.8335516861017607,1.7990752844777915,1.5833817532968701,-0.7635494406904093,-0.36988703099187803,-0.05884508535174926,-0.5333235907232216,-1.5081499860229304,-0.8812635951839605,-1.1676113450344505,-0.504324426209911,0,0.0,0
5.997,1.7260472273303151,3.0099542199982814,2.923770773523019,7.6191627633463765,8.31629795062761,3.493906295727036,1.6221128370469078,1.4597531125133703,-0.46851764860666734,-0.024546060878249575,-0.638927627493627,0.14052348896510633,-0.8725936203560746,-1.0465700498284858,-1.4793627496555068,-0.6977232298449959,0,0.0,0
6.057,2.257908715760468,3.1398898297676534,2.4592797522635705,9.890898745656834,10.901141530779046,3.9904531887589707,2.2904471982124868,2.571939635632206,0.10246954859496332,0.08492419143362628,-0.9808212710365614,1.1692302110671953,-0.09776470194686643,-0.8504247966831119,-0.5606881962054258,0.5873754811444668,2,0.25,0
6.117,3.4020517713166605,3.502647034255099,4.429393624923379,12.631203164252533,13.851943006216127,6.029225769764317,3.361315489176497,4.125898618704816,1.6099165360072545,0.3605512137931597,0.32057042498001986,2.3528313745310045,0.6574557780919774,0.08521734652057082,1.3983495995625301,2.9977055730360704,4,0.5,1
6.177,4.0730523206923515,4.5321516159484165,6.0182449082516545,13.447722172159205,16.432582332521427,6.861199076087155,3.34672207937983,4.639256092045909,2.5545279001052976,1.1791317204320815,1.73951689375681,2.7377799655085373,1.3797777531677051,0.5410117449563677,1.4124358771025047,3.862049416441644,7,0.875,1
6.237,3.7203722082006556,4.699485661714792,5.979876119854112,10.558113865473564,13.392563259910856,5.848893976079916,2.7958945957349917,4.072247586330644,2.011980109703356,1.3290263542949103,1.7171213954047928,1.3510485717501284,0.3450965836634227,0.0428416362350574,0.5310269826854317,3.003509883868208,5,0.625,1
6.297000000000001,2.3615233780672638,3.618327521098451,4.82725997010952,7.007115846606734,8.10200074864826,5.201733728553287,2.853257344537258,3.015533194530934,-0.030148482970101382,0.41077315690329863,0.7960278336385774,-0.10887418918903309,-0.8958023931984255,-0.23605285718178992,0.6308525168480749,1.4201831303431656,1,0.125,0
6.356999999999999,1.0311434469208711,2.6162731239742296,3.27070233591413,6.6125672937792155,11.069417216865775,5.79994374008359,3.2247221850003203,2.0944937911936132,-1.399249059359196,-0.3640176475782421,-0.39007517837278965,-0.25931122327516515,-0.1589699081565854,0.04015720709931803,1.2493000066855402,0.21422640016172334,1,0.125,0
6.417,1.3797012431111468,2.0897261926540427,2.318231365396563,7.534382081936056,12.084894774039828,5.235140825607855,3.1227522742881244,1.6355196335748268,-0.9787945191175722,-0.7902765315997134,-1.0290808788833685,0.15713030035042747,0.1918266375550477,-0.27334606416037305,1.0499639152055422,-0.4580283929640154,0,0.0,0
6.477,1.9842708587089757,2.1273677955273933,3.0569663332345103,7.254435349793585,8.575756900671436,3.912007034640756,2.935408486930384,1.5990150474391944,-0.16065708067054651,-0.7645869701186325,-0.5650713612531447,0.031991805354465344,-0.8138095274780138,-0.8471116826356412,0.7473727289445665,-0.5190146247975752,0,0.0,0
6.537,2.7330516766555966,2.6762184121312558,4.806081213799215,6.59564502221266,5.076076564425201,3.2725082879405574,3.143162061689205,2.2916451129681565,0.7769457857758878,-0.3147487238157586,0.7419755794817914,-0.24606386473909622,-1.7087236043481624,-1.1641715530667571,1.1137867089111215,0.4391599300039985,0,0.0,0
6.5969999999999995,3.0230583398454556,2.6737020163362755,4.86876923332359,5.547879895174774,3.1671006479978177,2.9058979407271286,2.70164685764676,2.6589337588504267,1.191654373410796,-0.3153357253048823,0.7999466657691107,-0.7803686275859755,-2.209369493378984,-1.327556982420435,0.28417369916309726,1.0349461305799135,2,0.25,0
6.657,2.362787154414082,2.0707944515245593,3.3776453105428654,3.7016063059432223,2.537891627026961,3.412411313102185,2.5276080876864935,2.5113335127692746,0.23069919329168995,-0.8178972072009302,-0.28975083496618004,-1.5721004417894366,-2.349876902968221,-1.0898266459964794,0.0017396700602387478,0.8232831719212289,0,0.0,0
6.7170000000000005,1.5556761968811363,2.0669433860751054,3.6309281755704697,3.4822171347612323,3.384681273331499,3.2025526328989726,3.28405491902883,2.384311653531596,-0.7104771881786833,-0.8350366062250164,-0.11561102774020636,-1.63511280663975,-2.1405342707084953,-1.205982957629521,1.290713383278302,0.649855533160667,1,0.125,0
6.777,2.441814419160363,3.7641206326972987,5.608944636193869,3.9359999654132243,4.9016428660824,2.039234512341382,2.92869564672632,2.3698003804828294,0.21714223205678226,0.38945658115791065,1.3323829509848466,-1.4240627609272545,-1.735352707978742,-1.7895117347067628,0.45889229442183604,0.6278590473481742,1,0.125,0
6.837,3.2659242810654434,4.791883609856538,6.168440828993167,3.139401109010836,5.582838840755504,1.2065696951017415,1.4848659533407227,2.2388151518460324,1.4724065440688603,1.3870973417753654,1.8093849237641617,-1.8440576298736182,-1.5234921803959807,-2.130602900360142,-1.9537334247767157,0.4231522587437437,3,0.375,0
6.897,2.9241909185069215,3.8437565597085093,4.527461697779418,2.3329110033605853,5.061070753681895,1.78465399940239,0.8302059037100319,1.6985855634422284,1.0137728061257982,0.48873363597573993,0.4553648163999875,-2.151217634782513,-1.672775928888283,-1.8985069626649234,-2.8201854007604403,-0.4649506225804299,1,0.125,0
6.957,2.387285969032011,2.8610864869172796,3.3897088363880368,4.371612894073019,4.281538614706217,2.88426898373694,0.986421471499461,1.0565982935444183,0.3938239147806291,-0.16906798651677502,-0.23143563670832476,-1.3810173665806615,-1.885194541512024,-1.3600777891747358,-2.5815702243668732,-1.2653037161854037,0,0.0,0
7.0169999999999995,2.4217332340839977,3.3278043293500734,3.7226147878184466,6.333535169847064,5.295564027650914,3.718381429790576,1.5714251611703782,1.3337525667451715,0.438577011803166,0.2262332542578296,0.029384880276347294,-0.4024490857855063,-1.6512502300505263,-0.9394016010865744,-1.6613526983405233,-0.9140969521695106,0,0.0,0
7.077,2.5311382715773005,2.9699254105381803,3.227247510222644,5.79400630234456,7.456049318155528,4.420828514744308,2.086879518183229,1.8683914144042704,0.57681817247839,-0.11463525937754948,-0.3850869992083222,-0.6877538865936642,-1.0433320054795205,-0.6084437987509299,-0.696562248124558,-0.11902781870285706,0,0.0,0
7.1370000000000005,2.4520568319145517,2.0408705663414954,2.482409442151927,4.213660639322333,7.660835493411725,4.733585055492946,2.0259318713154353,1.9775609134232492,0.4697369835139462,-0.8497542245734789,-0.913136133367673,-1.3249135865366448,-0.9713716688099167,-0.4530239930492274,-0.8013052047035293,0.06196433731511416,0,0.0,0
7.197,2.4158389696097067,2.227480476639704,3.0995138936103994,4.799599194732666,7.492587407370067,5.810400019055144,1.868866897282301,1.8531305013763024,0.4262868800096144,-0.7138280809576317,-0.5002693173758366,-1.0704829677734546,-1.0127318486783288,0.0020648457345705715,-1.0499558233651702,-0.11003602007895123,0,0.0,0
7.257,2.278052865260732,2.494500530875788,3.2372273116523274,4.471609121430216,8.555231746266331,7.716453772539683,2.0689213801476667,1.8657992028152812,0.22225200899077802,-0.46085686791553054,-0.3907172482355916,-1.247940141550498,-0.7216391109490697,0.9234743712471879,-0.7091962646689819,-0.09107942664436404,0,0.0,0
7.317,1.9407075883635796,2.5742297139081094,2.567891902929146,3.039365397053748,8.961594461802934,8.048082065777324,2.2186060481276555,1.6756585905785781,-0.19953689267263017,-0.4112928786627348,-0.888017451910045,-1.8328959537308478,-0.6080771908739364,1.1037386844022683,-0.447944679564199,-0.3855715651363178,1,0.125,0
7.377000000000001,2.639710550436594,3.709304540970895,4.337494093796874,4.619058509082496,10.881552818482898,7.4138088663956605,2.418342711379512,1.570049728288316,0.5890132405040835,0.4553632191952621,0.21341171527287126,-1.2722483833294518,-0.1472828456123336,0.8120988683635747,-0.11847634040199397,-0.5369871596610082,0,0.0,0
7.436999999999999,3.146887230461394,4.150405615437064,5.8833298085197345,6.683866148630057,14.354706489786093,7.446697647879649,2.893898958111207,2.049375287260746,1.3388539291205657,0.8810020360919132,1.6178382729623706,-0.25226101606717377,0.8065601974524976,0.8278289934618108,0.6723026444890122,0.11610801367391343,2,0.25,0
7.497,2.5447798243803894,3.114976493473092,5.387935573241059,6.4335240010942725,13.399838699985224,6.33807761158668,3.2165214159551194,2.4325910991300996,0.4764370399269074,-0.05926811701607152,1.2279787383035015,-0.36238470481999124,0.47201141189054113,0.21095476805580052,1.2530653881514626,0.7163957641091115,1,0.125,0
7.557,1.8313624333668796,1.9608039536072914,3.7650281852614738,4.541585795898493,8.244992772537154,4.269790182253101,3.0984021233598793,2.4662099799643222,-0.3328539719720899,-0.8987441311386868,-0.03477499344464705,-1.2002027136010223,-0.9279053246600979,-0.7170751898115681,1.0469128495833169,0.7652294760346656,0,0.0,0
7.617,1.9510091478427605,1.9081908299308488,2.744471858816761,3.64371716341165,7.141609775445828,4.644955300154747,3.0147963912364517,2.4561442681198318,-0.17864280840985594,-0.9320765851501,-0.7430774051302182,-1.554480089036639,-1.1545191180239767,-0.5428774474667489,0.9068104430454736,0.7446868972151989,0,0.0,0
7.677,2.0904336747165297,2.285699503120791,3.903014385163329,5.569290404273785,11.460547614994162,5.735615089861432,2.6986756888874988,2.0781091707850696,0.008403711970792357,-0.6268339904924385,0.02933976308011819,-0.8289959950483641,-0.04655321575482829,0.01606126769496968,0.3085889650496512,0.1275862208200322,0,0.0,0
7.737,2.288233903730459,2.3161435546783498,4.994805525431784,8.278794778940618,15.490705567497294,7.0257456841025165,2.3612450394370974,1.5251623378395214,0.25259182618052795,-0.6045454057097378,0.9820300399967342,0.4324233807987709,1.1318029463994024,0.5882367359933204,-0.21894910420295313,-0.5860456350095661,1,0.125,0
7.797000000000001,2.330657742475855,2.0966931485117706,5.255153220739763,9.934208770861153,17.23329906641793,9.499718339845328,2.8705157345998495,1.772827372924112,0.31563551579893606,-0.781964339709754,1.185628958197815,1.2181390302486002,1.6327678557425525,1.7333178109428309,0.6144135361871496,-0.2634910000748579,3,0.375,0
7.856999999999999,2.2143687737987467,2.112687424350817,4.494751415404955,9.337796056140549,14.926385940394882,9.598342779108467,3.1620098716281655,2.152104506404684,0.1720967015075009,-0.7655627474740854,0.5041575171796449,0.9006428563099367,0.896723772942507,1.7634645521579104,1.1576743803547567,0.30443737657291786,2,0.25,0
7.917,2.4121436330370316,1.971392075348854,2.7100545445525386,6.283534002749952,9.054670371839913,6.666410200794489,3.101956031924287,2.2346543005384496,0.41884322643897637,-0.8843621156989148,-0.8719985626767105,-0.6103532991352393,-0.8131568702942453,0.31813820595148873,1.058174489292146,0.4340948533534577,0,0.0,0
7.977,2.526894790637564,1.9213093293277965,1.6075738248218654,3.5362843766725374,5.1243248822037675,5.0900884028035085,3.224101309691917,2.3932509782834446,0.5724868728644867,-0.9214258453836793,-1.5620643188613323,-1.6074540917350155,-1.6754519641959824,-0.29104334461371606,1.2654501058199055,0.6499113851531314,1,0.125,0
8.037,2.7083377590400812,2.4539840132302504,1.8475302173156414,3.3877955383841027,8.430885916647178,6.0364736540013935,3.6598466794260647,3.101965865569658,0.7888873771418456,-0.5047098000704036,-1.3987557842056513,-1.6602783992399794,-0.9029629435982831,0.1483504232061126,1.9865144741987557,1.6028314740375869,2,0.25,0
8.097,2.9915383967357236,2.5683404494580997,2.280154108226186,3.301715614845102,11.670935769927654,6.1220319063531345,3.678534030573312,3.57735487781154,1.1572798812321012,-0.4130192516040884,-1.0594886526186573,-1.69690597809703,0.10021574661966816,0.1736028794283245,1.976817138564071,2.324115877865179,3,0.375,0
8.157,2.5710575315167334,1.7938451052374047,2.0667732675753534,3.366109296769472,11.03145662454649,4.250068435107422,2.612006221993303,2.914392165691134,0.5286312124069878,-1.1414711968861695,-1.2427034682943672,-1.6680343552570467,-0.09353502077423337,-0.9043241655308755,-0.16647603214740667,1.1929728657019008,1,0.125,0
8.217,1.6703800200317447,1.755383299719983,1.9486517315183263,3.486637973555717,8.052104661249691,2.443605519611973,1.345226843029822,1.6534763180917145,-0.5840601423806853,-1.1904261817407908,-1.334640353000039,-1.6181074695147117,-0.895948803503413,-1.6083350095124267,-2.014594832157075,-0.5100922700933403,0,0.0,0
8.277000000000001,1.6847672275676249,3.205082084220925,3.160174619599001,5.168881332662519,9.416101473792,5.09369672244857,1.8451804472677438,1.798772375852864,-0.5574311275798286,0.0039010080687288395,-0.49339655912374697,-0.9846122312456503,-0.5923259488252197,-0.5277155823354741,-1.27265137788463,-0.3128671623775857,0,0.0,0
8.337,2.0368348342166995,3.4816799080411953,3.611166413559812,6.6918778890908435,11.424718687302736,6.545507739786308,2.3347421574339418,2.164243643169056,-0.06428674306501446,0.324245046799276,-0.06792151629047583,-0.2375617039451714,0.018979491093682892,0.36225383703600217,-0.2697032912872446,0.31435179519899337,0,0.0,0
8.397,2.2152133051670613,2.557732645458754,3.1288454682033344,5.319327879533254,8.896771690508837,4.864955887048417,2.274293005501248,1.8938308770160632,0.16801232321094564,-0.4395208698423895,-0.42288541949620334,-1.051637839698297,-0.7897861141696483,-0.6497525942884564,-0.35998168246700857,-0.07352650779771586,0,0.0,0
8.457,2.041519779162905,1.7199154491839945,2.6192730099353145,2.122107922520657,4.661128604756712,1.9655697470280469,2.1288769763065045,1.4861426065269252,-0.11719003288675851,-1.1344039825772179,-0.8307409325005201,-2.3496909258146936,-1.8104131925179836,-1.854238131382269,-0.605727043675267,-0.6640798380674218,0,0.0,0
8.517,1.2908616067134289,1.0768668474980214,1.703917173251015,1.310671060874861,5.034310413188637,3.4255800511457144,1.9097463200882474,1.1030035250043726,-1.1975133146644392,-1.6468244757436372,-1.6429045019854778,-2.587853783880744,-1.7447944989094133,-1.3452146678746895,-0.9920561340516995,-1.209533753036853,0,0.0,0
8.577,0.6752946114957293,1.2077020844811903,0.6896853269861596,1.7095043553167981,9.874163602161525,7.104801668758913,1.450328743268473,0.9474403839676695,-1.8109501553120906,-1.5479780380642107,-2.265887868387759,-2.4026731771089485,-0.5452780168196183,0.4576002791879435,-1.8413690993133656,-1.4031238705175955,0,0.0,0
8.637,0.7966095204919997,1.7477471847942843,0.8548708623469692,2.0401198027826886,12.15142570670834,8.443068173113994,1.1324442823347929,0.9192327872948997,-1.6732240320392633,-1.0778409282245143,-2.167828313864386,-2.2576091771680034,0.2394999913230158,1.2698408239724832,-2.319220849159859,-1.4471734704820107,1,0.125,0
8.697,1.7415023576092925,2.504801116916514,2.354519674186765,3.387732706163123,10.884233416444422,6.843321157953054,1.526914419317589,1.2587677538969237,-0.6725742789870917,-0.48424438728443553,-1.2301109583879906,-1.7556090023441293,-0.10185259017489416,0.4740088312828843,-1.7047955313818088,-1.0515260418756471,0,0.0,0
8.757,2.493348996685366,2.882600307466787,3.946112919607936,6.734601339350893,9.630881274973566,5.0840467507545215,2.3683971922307254,2.1038479262826497,0.4887041386368367,-0.13739730442386175,0.11460573747386127,-0.3776078648427132,-0.427198243539404,-0.29676711093267194,-0.30959271781446723,0.1423411109163208,0,0.0,0
8.817,2.365241184864895,2.3885027410014104,3.9000562117115756,8.777108642098662,9.890831176139196,4.591982590331182,2.6530844170661565,2.508709547188754,0.32975686723625186,-0.5837603045377445,0.08531341710366823,0.6935735666192899,-0.36587508372506733,-0.5193715876070492,0.27202142150490266,0.8205299197643106,0,0.0,0
8.876999999999999,2.1504706111418788,1.740265677331043,2.540297585434066,8.077560776238226,12.350743495157719,5.23588109307263,2.3181402271037697,2.591175721588365,0.0695381271662373,-1.0789246576382447,-0.9227220029809575,0.36973610927238926,0.2694040700654272,-0.23625337550224776,-0.29530801618227326,0.9295589452432752,1,0.125,0
8.937000000000001,2.596214155230948,2.012594850320592,2.000933735890551,5.938482266123398,12.507029698614138,5.702238441930132,2.130049578524655,2.853052167669758,0.6269460448877274,-0.8747899576897512,-1.2637756902090282,-0.5982525505737013,0.3149991796149901,-0.0040954655465370625,-0.6021099197114268,1.2949127400803702,1,0.125,0
8.997,2.4800769598970933,2.7380970159739064,2.9055076779396107,4.6516496237750395,9.344464820466069,4.581239820689297,2.0210378161356344,2.5135082018098207,0.4501423897121994,-0.27078816535863987,-0.6694055053986417,-1.1093369881468513,-0.554392253694853,-0.6019384339922549,-0.7909639315844098,0.7262641510400978,0,0.0,0
9.057,1.721217946619502,3.0835832184363583,3.692452096818259,4.4656889176437415,7.29398580983424,3.429053468609133,1.8425478545509741,1.6779205278620222,-0.5124574494448425,0.02948401733011925,-0.013336246350586757,-1.1887369306909576,-1.0646351800286404,-1.0803256686350826,-1.102420438681976,-0.39634443562341604,0,0.0,0
9.117,1.2926805755898119,2.6195835680448805,3.542977466621804,4.028770376300739,7.647051740876336,3.723140925147349,1.4458411776439561,1.2824665853747972,-1.0170008968238762,-0.39328698532425327,-0.11993869158392574,-1.3803020207884413,-0.971651117427044,-0.9377315678921346,-1.8497773456908282,-0.9367710166720052,0,0.0,0
9.177,1.5561503644209465,2.4928826922160234,4.389148585632292,4.514561117810487,7.58223685337289,3.5413954380684602,1.3057936346199084,1.508843146450022,-0.7461483879584446,-0.4990944765654617,0.41661966480831686,-1.2032291668005657,-0.9943818275766807,-1.026233975554889,-2.071812734439813,-0.700708615573812,0,0.0,0
9.237,2.677822943147877,3.9107584554786627,6.545780568866224,7.011158255230259,7.391095898332062,3.999004847514893,2.1679474815565656,2.7701527165187003,0.5980091436773999,0.5989445246833659,2.055091747544852,-0.17732169583537827,-1.0549133436479856,-0.8495948616852004,-0.7084462668109187,0.964734200136982,2,0.25,0
9.297,3.1819429575489124,4.287747576168871,7.336589916913251,9.214649160989959,10.48719431243239,5.77039182473816,2.826201172056178,3.2275099333245674,1.3877631421490284,0.9772724288044756,2.7364020164187663,0.8892688104072969,-0.28374630962400094,-0.015350467598054252,0.5718199549586891,1.8018308715830438,3,0.375,0
9.357,2.498092611444521,3.0192570654465447,5.893306167927832,8.832825585506466,12.850783157873757,6.316883227788328,2.8332496633475084,2.448784645216092,0.41136784625927886,-0.16225149793628416,1.51588359461047,0.6874962207546887,0.4362017546416026,0.28926288765315455,0.5953371576243094,0.6125145184115218,1,0.125,0
9.417,2.091518363495179,2.8475763140774952,4.388777802115757,6.741722200200501,11.558427462012297,6.30493751770674,3.0789107066006953,2.3455426304218605,-0.02632311857570298,-0.29196960598232335,0.4850705124600431,-0.23240566350504357,0.056542952396638646,0.27665987940985814,0.9766767788420728,0.5020970859531774,0,0.0,0
9.477,2.2675957530459177,4.106812524793024,4.884014894853919,6.364798003129947,10.675756558372619,7.834517710392184,3.1947936875159373,2.616483762559514,0.2160419845963507,0.8035948623504025,0.8590018333084842,-0.3621449359370285,-0.16103556744051392,0.9662461929477852,1.1730102082043297,0.9315289413200852,2,0.25,0
9.536999999999999,1.8538479858400516,3.95308232239143,4.620566797637157,6.522935325705252,11.188087546631413,7.995149224196392,2.3998682006102046,1.8966420118777059,-0.34853157823487635,0.6816050947576632,0.6494380729617352,-0.28509556537014114,-0.020136226856679474,1.0404963887642964,-0.3158488101381165,-0.2574584409558393,1,0.125,0
9.597,1.3593112227889104,2.8285310314513996,3.7349235681877175,6.987305870651124,9.673071940644103,5.992057825503653,1.798204212265794,0.9622518317527504,-0.9351638224738874,-0.19895915148132712,0.042727121697603655,-0.10457896305829768,-0.44629370198530777,0.06910140419964485,-1.2048996360144677,-1.4279326034728081,0,0.0,0
9.657,1.423624787034575,2.618235477337118,3.6941885521396123,8.02713497383517,10.78647991721138,5.927105441338106,2.5323336380369383,0.9210319143514522,-0.867727406239537,-0.34682095726478307,0.013901573536480869,0.3761550524940216,-0.18376582406293843,0.05931451770284681,-0.05017005801822011,-1.4590303848528812,0,0.0,0
9.717,1.9246327122655051,2.7120086888357604,3.7847282581240465,7.55100615061608,12.620391256777834,6.766550646445908,3.0347091486714586,0.9775718888569755,-0.24369384007765307,-0.266618641913312,0.08049559197307002,0.1493185552482059,0.368509732913148,0.49880690562464713,0.9380036673729671,-1.364749629652109,0,0.0,0
9.777000000000001,2.0543251241099987,2.579829744570577,3.5292513387847424,5.653240723760163,10.507195624496635,5.861712501099034,2.78726326507354,1.102208712524649,-0.05146146542432822,-0.37556675532637457,-0.12877154149546996,-0.7374478058907917,-0.27193537630787784,0.047240194828675953,0.5002880540258176,-1.2206281873268576,0,0.0,0
9.837,1.564054782960946,2.4978172497561024,3.1152972622759254,5.802252897316671,6.750134588290629,4.334911202620608,2.5310737993233747,1.7554878528664712,-0.7303899847554914,-0.4418803143440649,-0.42624593757056517,-0.7185196178967322,-1.2621123861722146,-0.6752114928866974,0.08557238251285315,-0.3423612848757364,0,0.0,0
9.897,1.3006363240860153,2.37168772869212,3.765591182637028,11.227535568593693,7.565328580151961,4.057179038571017,2.333146333178289,2.1792526464361726,-1.0284201552010175,-0.5485415335989078,0.009849547531521211,1.44406833135983,-1.1109269313967978,-0.8279057454684672,-0.27263495652703246,0.34924126327175525,1,0.125,0
9.957,2.043137101250278,2.4786365961771994,6.181224940959978,17.19945106142556,14.637339891437218,8.680915593440123,2.356447775869094,2.5141312103887774,-0.1711989723360712,-0.4681692769589005,1.6688439314553294,4.28142977485489,0.6725279323255099,0.981797184856137,-0.2689472543758324,0.7939626486461323,3,0.375,0
10.017,3.362754447798278,3.0614966920623004,9.439199165137316,19.697357680130477,21.444325668383726,13.525530761113574,3.8543514145180304,3.6736211195713766,1.506060709173685,0.00023758171583981394,4.1817199275011845,5.507239937644619,2.702916110103408,3.582832574279584,2.0106198156354904,2.3275147778166496,7,0.875,1
10.077,4.021105835053344,3.307389050142434,9.161557937294317,15.519980760747046,19.949937762355,13.145361807445846,4.561512924771874,4.281233958623173,2.4593849922509894,0.21149072413421863,3.8301453775914287,3.1986155727488224,2.16158624981126,3.370115832590739,3.4701264770625913,3.3174877649346937,7,0.875,1
10.137,3.0974925388137198,2.59627939279189,5.144930368949281,8.376125804607168,12.941190692804962,8.696213901284752,3.3741869395580766,3.258434580904992,0.9546798639164131,-0.4718584960046878,0.5892787473941553,0.3337205171407698,0.36157088898833983,1.259018178911687,1.1029880924710385,1.5558241575257297,4,0.5,1
10.197,1.3263638501752737,1.3895141195212724,2.843741005256663,9.164781389141897,13.75954273292277,6.868415167217623,1.816484827927469,1.647247514123829,-1.2145462965207299,-1.4284646910771681,-0.6667092586054547,0.7362120675140339,0.6084169759002785,0.5484406352787675,-1.2117555459867342,-0.5097586474366053,0,0.0,0
10.257,0.585799471459901,1.1074016961688649,3.7838752042154695,10.260419063614819,14.381696520047031,6.731861332635683,1.7706318198665356,1.4597762860159154,-1.926106868772571,-1.6215850329500405,0.04497363406339294,1.343395570912353,0.8047001213161313,0.46630944699944815,-1.2469885666977796,-0.6953590995476796,1,0.125,0
10.317,0.834949540199106,1.773583779130143,4.3918523553225475,8.5312228339117,10.955263782648716,5.239626853059807,1.6562253450885414,1.6245548661857343,-1.6566136773684965,-1.099341134700169,0.5311823456510626,0.5773273562664035,-0.1208518026227912,-0.26605385814177135,-1.4763086751573489,-0.4419175159029287,0,0.0,0
10.376999999999999,1.2420518655753887,1.9290424409501588,4.243262836003415,9.057640189471034,10.610603759520831,4.065511836616922,1.6446302964960458,1.474804849880161,-1.1085624903904094,-0.926230519482948,0.41571465435628685,0.7777644372235879,-0.1835813805345293,-0.76825136880391,-1.4989857998619558,-0.6596085742558143,0,0.0,0
10.437000000000001,1.3123032177226874,1.4213073758042374,3.4004470692407893,9.972363942504629,10.158185103671894,4.5408873292895,1.9523089483159644,1.385371348711434,-0.9946240804967456,-1.3558036444482646,-0.25406871005346676,1.2021791742279893,-0.3312685180558205,-0.5734665083934063,-0.9208089943933572,-0.7765899495372058,1,0.125,0
10.497,1.3164622131945982,1.4693670304342346,2.877169079636533,7.866245351870267,9.610210327633208,6.412176533657506,1.809525369714362,1.3813174505799286,-0.997877322286883,-1.3415511198850665,-0.6198873136209405,0.17376748543815493,-0.47844478040005467,0.27057120211221936,-1.1683083257366123,-0.7844206814209675,0,0.0,0
10.557,1.8267883254315656,2.496043558029769,3.6606659766226555,5.742762677210174,12.453722041720003,7.609194067414506,1.9290080605315962,1.2092806750535223,-0.3870331535749491,-0.5397661505569679,-0.06308172063373986,-0.6315267038101761,0.2940421929777311,0.9001099922190104,-0.9784500323050812,-1.0400374260076022,0,0.0,0
10.617,2.2719405465292413,2.790170461248262,4.080533534750649,7.007030141215895,12.272781937184327,6.411578800260622,1.9032210524267945,1.0833796242226923,0.23555210727824372,-0.21797108928919182,0.30085599844075683,-0.10966619287167949,0.2415391185551915,0.2321698804891615,-1.0578594469420013,-1.207326849073891,0,0.0,0
10.677,2.176138122430702,2.6131335064762546,4.5958743737980985,9.849055290462525,9.74142427918459,4.094729339534733,1.2432051249781313,1.0380499145073034,0.10202979738481144,-0.35306236554083154,0.6440042825094823,1.1003754977313551,-0.42520127022712667,-0.8145674857902087,-2.262574173320035,-1.2746321739025797,1,0.125,0
10.737,1.7100127646555627,2.8078390045869086,5.80853795167846,11.362412960266349,12.13798679853706,4.894533201996913,0.7773118872076241,0.9214077320730915,-0.5076197214687804,-0.18981494370633933,1.5638273914171856,1.8057344221781462,0.14837858538149007,-0.4994637322318265,-2.91349605834292,-1.4410939500813538,2,0.25,0
10.797,1.886767815804868,3.108469511745583,5.936586164592521,8.890311168492005,15.064341762744688,7.550000528504463,1.0532197352784078,1.0209474062006154,-0.3191039290146176,0.052324754432345154,1.6836955607913104,0.5027297649993707,1.031914132383709,0.7991257991404702,-2.50812156518913,-1.3240448496414077,2,0.25,0
10.857,2.319833202311902,2.9894306582694297,5.265197770337859,6.536098718643067,14.771791233643967,9.242817567864723,1.82822718953168,1.3831540644194424,0.2902461152904094,-0.06870513701416263,1.1884416683330643,-0.3641778075691775,0.9529819871242564,1.6688125331055,-1.2660611129452546,-0.8155530602167239,1,0.125,0
10.917,2.0695570317196093,2.034142370756211,5.701812471565853,11.713711638426236,20.60141845383348,11.960119279097507,2.935857906683547,1.4203398604450967,-0.05923530561272506,-0.9625830104613663,1.4955348460408013,1.6762311253901696,2.258656694991814,2.851632720562239,0.6295743123470934,-0.7440915886835763,4,0.5,1
10.977,1.6537392920474705,0.9549102730197377,5.471215262363782,14.065543553546743,26.813321247197585,13.74455866319182,3.6277912983789737,1.1471019361341017,-0.5521904478875188,-1.7624406553132994,1.2507669489218918,2.950867937281629,4.1397859630021125,3.7562485238146013,1.9200485990541127,-1.1255499192370613,5,0.625,1
11.036999999999999,1.7492507490120106,1.2434311665316022,4.20456374411519,11.231435171416434,25.047956824929802,11.690101576804008,3.1484536278572843,1.2973334872893707,-0.43617645740971817,-1.591423569672987,0.2857044078871626,1.6021645852294337,3.6664308688568856,2.71324654773291,0.9831273675802206,-0.9482675108965383,3,0.375,0
11.097,2.418664763430555,3.152513799440073,7.866549529097866,15.297259622984338,27.34170995084864,10.83856803224813,2.628858219459623,2.1154002181600826,0.349946408933357,-0.17871482263471503,2.482725659295377,3.0391589595195185,4.220398272622133,2.3801322568035137,0.19878552702642296,0.13929498993735664,4,0.5,1
11.157,3.0616927105634346,4.28567485072134,10.444610398778815,18.435846240980894,28.025917877982828,10.999955064143315,2.989420367253123,2.491759360335234,1.2309206283347331,0.9821448334526104,4.970431951810908,4.789292651352904,4.343498182434126,2.4169528518686243,0.8280094451501951,0.7703777141681871,5,0.625,1
11.217,2.5554649647828334,3.4133563813627497,8.064649109580676,12.91131623463223,17.81994055032358,7.347772556354766,2.5590546967591163,1.8887202401182477,0.37683263767687863,0.059054349858805234,2.7669364977881514,1.9525484900635888,1.2896273642463818,0.3920263461382325,-0.026487565483561404,-0.2359380335293507,3,0.375,0
11.277000000000001,1.4837079478462536,1.6328655367599074,4.02503943725317,6.906553629392046,12.432131055899234,3.8540634898062476,2.5179418736716626,1.146477722832937,-0.8413132983021016,-1.2379625269020988,0.15993319324154512,-0.1457392280918244,0.21490554335144596,-0.9242556836726282,-0.12349463867780153,-1.13998244134593,0,0.0,0
11.337,1.92676987259223,2.042166531878412,3.7973744884930594,7.1822124387391835,16.428473401829862,5.429974225159399,3.757273910236385,1.6062969726765026,-0.30483624702941425,-0.9334541573175988,0.06899733690637087,-0.00866503538785283,1.3657118526490983,-0.2166957172616336,2.027489449733434,-0.5736850971454964,2,0.25,0
11.397,2.5805894213255622,2.9061738899863023,3.6407284539309597,5.976191740861508,15.674609038452816,6.5058713006007665,4.48248620059077,2.5752933998711707,0.6261635185361574,-0.13072390346434165,-0.06624936120059086,-0.6258303932152318,1.151450864772587,0.3830521438346652,3.4117200078058634,0.8167914903213815,3,0.375,0
11.457,2.8633272893659516,2.8792174277455342,2.9513343238413867,5.166648254955518,11.879942546601933,7.156338939569329,3.9859633188484787,2.890168898042741,1.00461493877152,-0.1456289536829949,-0.5600103759768768,-0.9362575707274009,0.15459782836658936,0.6777188008135808,2.427515631001265,1.3540424037603824,3,0.375,0
11.517,3.0168832150676894,2.8903440922691,4.24366017959181,9.203642675079026,12.512914716962872,7.7896532698407,2.8102071929802586,2.584838493846416,1.2005151196719996,-0.15244884197432787,0.2457721861645151,0.6414003778364147,0.30119885319649803,0.9918541270311834,0.4493530839049613,0.922990314893343,2,0.25,0
11.577,3.4135636905297466,4.209187348901743,7.64533432947073,16.321203943305534,17.99954964749718,8.645395709711163,2.881795227302133,2.810472070976665,1.6934075626570397,0.8587143622281167,2.709488198468385,3.7266212786677655,1.7318290353584525,1.3772291272724626,0.5831903067012849,1.2240020549728474,6,0.75,1
11.637,3.5687893729353526,5.124287765625915,9.084201312143769,18.8650119044964,19.07767863738897,8.454396919396105,3.5618311108745866,3.022699518164878,1.9022811891645934,1.7047709877743207,4.022274356063642,5.080646988965694,2.0575578185319743,1.2594768706737844,1.825012344002779,1.5493522781179758,8,1.0,1
11.697,2.966154996028548,5.153873974129254,7.572816792365255,14.600902787450075,13.339252380786602,6.256014809992178,3.505319730776556,2.4736759079626496,1.0696707220388737,1.7360284579263048,2.825376166468935,3.0359856552862508,0.34917529600339187,0.1865795592335815,1.7120914241850214,0.6836144518234551,5,0.625,1
11.757,2.3767718663949697,5.695874060581289,6.2551672158640494,10.041521826418037,8.57628972436912,4.525046000797339,2.6715435600220974,1.7444904096862994,0.37363629497139356,2.1493771088399294,1.92338066113246,1.2477959211422884,-0.7380924719827285,-0.5633478799832249,0.15419301579020564,-0.3069879251785302,3,0.375,0
11.817,2.426200657572625,6.438152920727112,6.976098359846313,9.432609045224202,10.781240967987054,4.879338311357171,1.74116005168902,2.030276156336975,0.44181063976157314,2.773626976475273,2.4470797640803363,0.993206013883154,-0.17836265872075305,-0.4091586802641212,-1.2924259386139625,0.05653910481267155,2,0.25,0
11.876999999999999,2.411617173978706,5.372686319873839,6.749502857174345,7.972334700448042,12.971224617892728,5.412725734234236,1.5789886389397472,2.4430661097577433,0.42227490933286194,1.7085073872725751,2.25131092260528,0.2654773034576308,0.47682340562666775,-0.13783093661291623,-1.5558198603520228,0.7243426438796821,2,0.25,0
11.937000000000001,2.461480470181909,3.5271738891721616,5.5020227849005785,6.924200335501886,13.463969609634779,4.595685184027273,2.467022375491012,2.743460954483828,0.4660799664768682,0.3394704716772295,1.3525239770145252,-0.14707126777908466,0.6129555330922565,-0.5528494391933795,-0.2522896748033934,1.116510419467543,2,0.25,0
11.997,3.4184009045983044,4.227174470999003,5.814470604808325,9.291391356984686,14.544834852835542,4.903162575537377,3.29466802209046,3.491772265789703,1.5953876164287653,0.8882496298863537,1.5809598668949165,0.8658255316388197,0.8902898516390736,-0.4396234449997811,1.3434143028313839,2.1609817582103172,4,0.5,1
12.057,3.4414515200327718,4.456694724054606,7.736878380929301,11.276816892425186,16.888463158304326,6.384003249740363,2.762419021987799,3.1709579265617407,1.5598212958849353,1.126258429750214,2.948888933564962,1.8070084675860152,1.5137210233639669,0.29993081846022546,0.13398503277220963,1.5111143898289878,6,0.75,1
12.117,1.9482608276158235,3.6205533578606226,9.111371133042827,10.332157457178933,14.766449945117753,5.843091151661681,1.2743580523324676,1.5986121472885408,-0.614162654725089,0.46040002022860876,4.0514562717185605,1.3051829361635072,0.7634867704449834,0.002861084358314031,-2.4879599493634843,-0.8703885829361027,2,0.25,0
12.177,1.33143456580701,4.785450464416452,8.67128267671503,7.662547392693629,8.51431936441075,4.332700397405613,0.5735973589573499,0.7412593959689869,-1.1675217750709541,1.2565296483289388,3.725408657264509,0.15350098116569483,-0.8432969079122324,-0.6665589018122781,-3.316731171589266,-1.7383644788380506,2,0.25,0
12.237,2.233125566830605,6.314405654831557,7.43236183216518,7.885151523073422,8.734426698226613,6.621572371822436,1.3716549786019558,1.103429724811596,0.0827063231918141,2.631269162252384,2.800648422135247,0.2755300264235723,-0.7513087904006475,0.2328053846287368,-2.1575893523747287,-1.2242153819935373,2,0.25,0
12.297,2.2574927162673486,5.933074864443075,6.331404390972053,8.703809112696918,10.182873060516572,8.37768679534088,2.194350781713472,1.3123002112744704,0.16991974694857578,2.3149355921706154,1.9712213092605806,0.6799506308829345,-0.29119216511932033,1.2235743914420467,-0.5738092461973707,-0.88078898388757,3,0.375,0
12.357,2.02118207902342,4.941620945696013,5.870843384864142,8.654469780498605,9.285336954975104,7.06089728238598,2.4050624090298687,1.4431548760299864,-0.11418033466100867,1.5600713264317578,1.6469515037407938,0.6595852581420166,-0.5326976480433774,0.5585495138431601,-0.13812751617352656,-0.7005599103205681,2,0.25,0
12.417,2.2894047105440958,4.466517193464854,5.595893545851781,8.302783327959188,10.68355009161108,5.3894891034571,1.8410510188189082,1.4298115283442077,0.23288639624784493,1.1299906741355497,1.4145171563009618,0.49290197423794174,-0.19130884774670684,-0.14205540133739034,-1.2722622055006643,-0.7296806381866836,2,0.25,0
12.477,1.9211306756447446,3.150611312334062,4.405824676364823,7.12567067053073,14.513141504911161,5.282523186478567,0.9660988980239833,1.1944331556933396,-0.31327268240493306,-0.09411720775773248,0.46318312297656233,-0.028726016344868013,0.8472262016435937,-0.19179320731613925,-2.7457410850392883,-1.0656321945739504,0,0.0,0
12.536999999999999,1.7004160663763752,2.044215810448579,3.574673474411565,6.286044386906472,14.577888664884776,4.9251378899784815,0.6845925627207672,1.286071523345378,-0.5615869716706006,-0.8376915201610933,-0.08324959099805869,-0.3831499287223033,0.8441961225727644,-0.37837696291577466,-3.088201861703077,-0.9434090823247487,0,0.0,0
12.597,3.0128480418340127,2.914337636360991,3.854956864623925,7.398460354016802,10.195532157125479,3.5801315603901354,0.8890161026532353,1.7997376020881577,0.9806881508096881,-0.17766645512196313,0.12915336928664958,0.03430001661645956,-0.3963133921947471,-1.10753977965376,-2.72881904264084,-0.2349635616620179,1,0.125,0
12.657,4.202698760411265,3.5129292205484077,4.006189955333687,12.368460814497787,9.425543693837204,1.9199111213457414,1.076392910630051,2.2729359928565245,2.681888264698198,0.3839335776049459,0.24736442235583764,2.035079364253128,-0.5556077053413206,-1.8077995193058827,-2.4094796666031253,0.4708259755649334,2,0.25,0
12.717,4.041144144381042,3.0886166099687067,4.433592240943256,15.38423220291178,12.549856108933765,2.342371517754834,1.5007227647677726,2.1584075292399305,2.4341220807986805,0.004804543527045975,0.5527158434903768,3.5860727070593374,0.3282624830086504,-1.6499685720506292,-1.7385997550207524,0.28655029924144826,2,0.25,0
12.777000000000001,2.6550486983695563,2.1810004608332174,4.847181287526913,13.198823120168813,12.60671309935376,3.560587643992555,1.9055366265951086,1.516335371532562,0.46791779681201495,-0.7550078980498133,0.8747179651229852,2.5258326225176515,0.36196897898118463,-1.0446566824033134,-0.9993902856243094,-0.6673581964765182,1,0.125,0
12.837,1.221479161782289,1.3222170287299058,4.5702793087069224,10.490231891711204,13.444902635042476,4.603536939422621,1.927429297056708,1.0240876862498192,-1.2872826066226977,-1.492497044058288,0.6590383957650917,1.4335674136832084,0.5421646829399835,-0.5383404566990497,-0.9515021473352568,-1.3182958632114328,1,0.125,0
12.897,0.7905015878606817,0.7496499254435659,4.682068408508714,13.283588761018768,17.397094470317434,6.405924108664966,1.630115727747786,1.3096907964844535,-1.6895613794465882,-1.893734893581594,0.7399265310820496,2.570205441329618,1.6190894917646201,0.26805052190251405,-1.4761421793072669,-0.9746138902842509,2,0.25,0
12.957,1.4143147520383585,1.6994727653903088,4.737287280033759,13.791451857128793,15.428856189897452,7.149110018887464,1.7548957979139832,2.1727929849668786,-0.9603189104687373,-1.2985307197523093,0.7859202413967085,2.8297018679746073,0.8873020400144624,0.6772200586044814,-1.3039792979054081,0.24118377666307902,2,0.25,0
13.017,1.755743736181403,2.6036685585836725,4.542822685508014,11.258339998440619,7.599564911703455,5.748462265228287,2.0284889316985173,2.4190322358645013,-0.4461327080165036,-0.4070198968765981,0.6461881113062322,1.754502814479716,-1.2793259019336578,-0.03707089562110227,-0.8083732455307565,0.6525549854133135,1,0.125,0
13.077,1.3361715813559412,2.372253556002413,4.526090089013223,11.403204850942231,3.6370749073412383,4.178596024475559,1.6375036071195235,1.7633630709869546,-1.1093036045393105,-0.6156209228181234,0.6205135748259373,1.8435370332779606,-2.069924686717172,-0.7248628063657065,-1.5674069900767986,-0.37981079595527234,1,0.125,0
13.137,0.9380572071723027,1.9915067544653167,3.643385357844943,10.079182495051594,5.95466939538951,4.330399338880491,1.7011367435582303,1.521126925168364,-1.5256694155120751,-0.8943619491272568,-0.10190319712918204,1.1386240229279494,-1.5126810156020258,-0.6606244302337743,-1.5291810753517792,-0.6595052979941604,1,0.125,0
13.197,1.775450606689571,3.4984721689872025,4.5802497120668395,7.515062012590661,9.205530127153525,5.620390347845807,3.234194245984913,2.330340583155104,-0.5556126911101249,0.19628374593648,0.41251210707046654,0.08224164100516984,-0.5960520768918404,-0.06626213849552755,0.9513021342297637,0.47561240466625154,1,0.125,0
13.257,2.7734026294989205,5.176729846606033,8.486043952553517,10.50338718402509,13.081107562753408,6.894663015878235,4.299583523185483,2.9980530356795585,0.8197779673195935,1.6947729139568917,3.291541629600277,1.2715391881530012,0.447713745151735,0.5581523128687018,3.0792506782905957,1.5087021535758385,5,0.625,1
13.317,2.773286799664389,4.883478955440439,9.41625148170404,11.28842320545549,14.046883759723054,6.681992871639903,3.9267598584490924,2.8082477923347393,0.7987760463886929,1.3423679534892576,4.172608122863907,1.71253717614559,0.734475463132466,0.4210136224311265,2.3347244659329625,1.1616610181048908,5,0.625,1
13.376999999999999,1.9146496774553823,2.726746314055427,6.230811462193193,7.603761837781612,11.879070097459932,4.8308112357806605,2.8597470072815536,1.8406318081047508,-0.30172219155977564,-0.5967568709768567,1.4261634004710102,0.005953857687624159,0.14142483489327592,-0.506533802040389,0.5649553182380753,-0.297346567996831,1,0.125,0
13.437000000000001,1.8308963938747436,1.6786144418903777,3.4385597210811745,7.935845418426912,13.341363492774889,5.167727739017042,2.7898470904287587,1.2405920492600617,-0.3596241065542926,-1.1936264235681184,-0.21002875040447225,0.13077706487791738,0.5096657896254791,-0.36805385999817397,0.4945047780053791,-0.9869449611423088,0,0.0,0
13.497,2.109729609301609,2.5657473884372544,3.446953642137766,13.355245778931696,16.967811303442257,6.95245496683627,2.7530583019933395,1.2499947510033829,0.03546167904040837,-0.43504156400570526,-0.19065816012165218,2.518087103644572,1.539496009839488,0.5701234036437065,0.3973737115114923,-0.9713460609922543,2,0.25,0
13.557,2.090117286697767,2.888063672830661,2.9478841687644346,16.738462445758667,18.145509101554577,6.872921792374784,2.047338558110319,1.4123974179031855,0.012702018645539118,-0.13343586607212196,-0.564394074036057,4.179267544990236,1.8644481111899394,0.5430582714853308,-0.8253804783777086,-0.768147340846804,2,0.25,0
13.617,2.007742058447301,2.3411307487346957,2.3044740241935995,14.239655843550295,14.702861294535637,5.363541173320866,1.8959661129432444,1.770171368417127,-0.09889455433286858,-0.6318364897648153,-1.0704023511554015,2.827418038460353,0.7765825184085662,-0.2134133213782989,-1.027546949481941,-0.25070126220039085,1,0.125,0
13.677,1.7359038807497842,1.6783234747970481,1.6241322344872027,7.5961873212546065,8.498406302887462,3.7323923249945894,2.1913802243778,1.7583822880688968,-0.46580829297086074,-1.1201859728424577,-1.5838059771514816,-0.20657174679187948,-0.84454284692427,-0.9660858383043959,-0.4999115611941833,-0.25892773637719907,0,0.0,0
13.737,1.7904538902457063,1.8191780338103871,2.694908667519777,4.592283592695831,8.229526133145807,4.81727678287416,2.1529154591198902,1.5460871109187808,-0.40319654722545484,-1.010347582979626,-0.989324833853808,-1.2270684422783191,-0.9059876947337936,-0.5562808763740278,-0.5661893567332751,-0.5504820185689995,0,0.0,0
13.797,2.005389009920752,2.127755760032496,6.125968098214,9.416255210586696,13.023470902766212,7.795801625397364,1.906905056659753,1.314898697310391,-0.10532735974359775,-0.7487629574801251,1.4513623891927585,0.6252606661748481,0.38379999980257495,0.8923412630076393,-0.9891299092589133,-0.9098743325472531,1,0.125,0
13.857,1.9412546807215143,2.539601837067941,10.077388534955563,16.922925701536457,17.86963752552768,9.794922336353375,1.837953588228703,1.2161807834566336,-0.19037373129638838,-0.4275842053395164,4.608548845442841,3.9881819658218283,1.7443738278583634,1.9258890014956034,-1.1037254636873974,-1.0413762481535693,4,0.5,1
13.917,2.0658799455907237,3.0839817896912285,11.830509254263319,21.626496819065963,24.012333856585602,11.040783046009516,2.0052998514929645,1.4911001254685798,-0.03440868761838522,0.023242402950631385,6.07994284832159,6.292400819999682,3.3707575105863765,2.5150079689640976,-0.8223558484026556,-0.6462158879361046,4,0.5,1
13.977,2.0861692902391744,3.3332253740801283,9.474021707786696,18.193485430744918,23.567782321847105,10.083340934496299,1.9403783230780214,1.677178571986739,-5.393914232583452e-05,0.24187782738897398,3.9987498486506308,4.4623225430109,3.188833784736012,1.9694895069522653,-0.9375021561174265,-0.369549342015246,4,0.5,1
14.036999999999999,2.0768999141749855,3.662391946624952,6.115922469799051,11.475710668763497,15.585739260369172,6.780495018475784,1.834024070292745,1.920096816002252,-0.009158284414065703,0.5007383203173567,1.7958425321479143,1.8438418024467003,1.0040070620643573,0.3932714152964613,-1.1063754500689849,-0.03267845560373518,3,0.375,0
14.097,2.383724457760436,4.113573927100824,8.655427206474496,15.864295032002888,16.289534387148404,5.901699874484754,2.1252533279745185,1.93532701597695,0.3764849390863525,0.8800182410000567,3.403876669555308,3.450157792579064,1.1601112382466443,0.06347626905070687,-0.6318689645595738,-0.002531120081136979,3,0.375,0
14.157,2.7195355101028778,4.585914947614851,11.846536220444738,21.954080857402523,23.653703362500284,6.947651693413443,2.67398501714471,1.702677234831744,0.8116651557776388,1.2604864351803375,6.029898229795953,6.3716428490291195,3.2441379676326214,0.5734421868314005,0.28768541382265006,-0.32582870443102996,4,0.5,1
14.217,3.0251981593674437,5.128443948459456,10.92957049340738,19.114768003294017,20.97901271327575,5.786166140591388,3.126704258889934,1.9662306765506292,1.2009070441824086,1.7117406490575593,5.246614853817087,4.7544035536370215,2.199612695900847,-0.0889115821313667,1.0964581914700218,-0.0010068337064786752,5,0.625,1
14.277000000000001,3.9326954256096465,5.427942314879537,7.3234885888826255,9.508439479101192,9.638273913515938,5.5567542642031444,3.451678457864471,2.8627589215946663,2.2856025947589416,1.9593495670384289,2.6012718500508396,0.5586075047031515,-0.7832148250420482,-0.22360337896830873,1.645157130533442,1.228357310962674,5,0.625,1
14.337,4.18891817054704,4.611704264843084,5.568445327018417,8.111066590775756,8.94195296933458,9.717694282702942,3.938616371203064,3.335308428449881,2.6513240077875135,1.1731553260175853,1.4147635624695478,0.09025352266260482,-0.8703547586114847,1.6809662992199774,2.4656274707752353,1.9976553751463824,6,0.75,1
14.397,3.428319714939774,3.3852612104087645,7.083597099930455,15.42570132228857,17.820315447464107,11.872392082299092,4.434591395632244,3.2643619827862898,1.6771305131481704,0.23915053164472044,2.3927918677773055,3.2489359306266863,1.5057435964857147,2.914661442297168,3.322640597929777,1.8963006425098887,7,0.875,1
14.457,3.1285465712765235,4.09014430171136,9.069330542511022,17.66487009353562,20.84598268496152,10.088469360547576,4.76280277041329,3.421084884413948,1.343142553704098,0.787709941156399,3.99903070397002,4.5461054526290035,2.5550934504680267,1.9486749230989402,3.8847419835467054,2.117204179716062,7,0.875,1
14.517,3.1096448861853623,4.490714472740841,8.066301185699311,12.632054534883421,15.18779089240891,6.390206034028066,4.592934431284754,3.3581290607598486,1.3201193024478564,1.1809805843496382,3.1134668238568763,2.0382950361673795,0.7964993007144843,0.154212597895625,3.5855357918836845,2.024223393496928,7,0.875,1
14.577,3.5300541587714664,3.746510378463643,5.171439130650757,7.787214305913804,8.44978752905558,3.9969806559121084,4.8782355037514815,3.3490409116026116,1.8111404511565221,0.5463050173038342,1.0020500438237872,0.214091329079362,-0.8094421501162737,-0.8051206444818041,4.031221444308433,2.00956005882306,3,0.375,0
14.637,3.814634321051149,2.7030882615354654,3.647677613001698,10.59930970728466,10.407260581983738,3.9522049579125014,4.938386027162895,3.288224039742094,2.1993049101668825,-0.3460843589139826,-0.03948446905985807,1.339167269128872,-0.3337511746420459,-0.8221668973246518,4.119385305011831,1.8980114013223595,4,0.5,1
14.697,2.93313661555247,1.725950372685118,3.5163852453294813,13.113436412032847,12.027562742434823,4.273552219866139,3.779090631926187,2.4711010725614355,0.9066695158240755,-1.111334651129396,-0.13926788669611143,2.6145841015178024,0.2031205374943185,-0.668955676725572,2.068074967028061,0.6584372417054909,3,0.375,0
14.757,1.7587589975545528,1.1198949831072023,4.892228930148576,13.618140646975041,10.213068529098317,3.9189411978627473,2.6724467851293365,1.7083215028719878,-0.4606736952687234,-1.6128903277561797,0.8146058827431336,2.845284275686284,-0.2927898790447234,-0.8562180227589179,0.27207050730674254,-0.34700226274719587,1,0.125,0
14.817,1.9459510705840162,1.0524454554120761,5.501010430446236,13.076016595307681,11.927582872084253,4.286908134135789,3.778251411718197,3.0643233833603603,-0.2509701561797197,-1.668773300052911,1.3474191056541829,2.5909510109330065,0.10491308299576375,-0.7474570974902836,1.6885487663963907,1.1300572641532616,4,0.5,1
14.876999999999999,2.6128151302436433,1.8948767692911432,4.674198744826705,10.626857088867538,15.221146133425647,7.817939545789863,6.108394593455362,4.63674643964005,0.6449895563364662,-1.0255778906895767,0.7133124136058604,1.442917419745949,1.0642134985555685,0.7748486179544614,5.854783062649435,3.7002043965168876,4,0.5,1
14.937000000000001,2.6114657278971634,2.505664004281972,4.738691543631368,7.058145154402894,14.046925597394985,9.838185744793144,6.196445619749263,4.135617570558012,0.6551190689223818,-0.4453040949250227,0.7677928190674131,-0.19982885809840897,0.7029345303825957,1.9459017628689006,6.147544159286958,2.835728168297896,3,0.375,0
14.997,2.0046770587666636,2.553745018586465,5.253384847086176,5.217745353198443,10.398818348185756,8.60542844752451,4.1626137304612305,2.2759268887441046,-0.14260719738424404,-0.3984846050704536,1.1829908630532076,-0.8985250492424242,-0.2525433423197427,1.3194855592539358,2.6010211873504416,0.35792766176630136,2,0.25,0
15.057,1.7929263211768587,2.8053428591745457,7.180391863877501,10.041784149716484,11.56113996842147,7.8269195685385045,3.325514581028714,2.14684406076107,-0.38255955097086164,-0.20781723420606726,2.4117627845232157,0.8745799331843956,0.023081851291480843,0.9773322827107168,1.3775931443741143,0.22064071947864028,3,0.375,0
15.117,1.9516792865260397,2.8663489680712027,9.556177550231647,14.282667268533016,14.655787570386599,9.178396810251428,3.8977761170762064,2.8521499517441766,-0.1700240934542673,-0.16360756148743644,4.309686305752748,3.0382403553803337,0.910432404270039,1.6185717287773063,2.3758639821146756,1.274386951546178,5,0.625,1
15.177,2.2457658870170665,2.4411900988911377,8.12111484179554,12.17571951450355,14.480409166632437,9.28087177005469,4.095606378894074,3.107825313240914,0.17946694350103556,-0.5120967673608975,2.9255945657822005,1.8602303241428906,0.8704775346846151,1.6859618676326935,2.7541826249083563,1.6830149337213187,5,0.625,1
15.237,3.091859807961649,3.442436557642771,5.022523335357011,7.026698506022486,11.585257225352482,7.705653714619415,4.068982895107529,2.9130179635479525,1.2175318206115981,0.16893378825869634,0.9303916361226067,-0.12672385114961246,0.053664655857237974,0.9027600238741832,2.7078707553770047,1.3938685806627051,3,0.375,0
15.297,3.570397175888027,4.869093924336308,5.352615969418538,6.908677671653608,7.634527974552658,5.317140915493161,3.524081565983173,2.529912363177138,1.8997248471005375,1.4412826616379908,1.2066184154166895,-0.12609505379456762,-1.118328590982027,-0.30936502437755936,1.629305175111347,0.8423425309396165,3,0.375,0
15.357,3.0003372668033497,4.379125936295058,4.430343769057374,6.994189146515674,4.046973366470358,3.28272530482787,2.2161831192509447,2.342200568288886,1.0781739260278425,0.9426720884435955,0.32957486134780994,-0.07699912886224151,-1.9856688507546456,-1.1533101298456796,-0.7024798111180203,0.589320912209595,1,0.125,0
15.417,2.0547347714953683,2.755562200276296,2.492544030556696,6.980146656214688,5.7240385458189555,3.7771847639846308,1.9827432942772851,2.240489160848826,-0.07435903878084459,-0.27644696887310455,-0.9298875024782306,-0.08285211764417491,-1.6178542608438249,-0.9512088381124953,-1.0429155121974403,0.4379529295405309,0,0.0,0
15.477,1.7772946782069448,2.396326791691987,2.5995885228631117,6.801262793517961,10.91815647963156,6.407905807925311,3.2244184394416453,1.9257116915334553,-0.3896775508674312,-0.5288221175605763,-0.8298783408847111,-0.17110064462896402,-0.23535933352797941,0.1992506814926617,1.066409906492546,-0.020718957307782625,1,0.125,0
15.536999999999999,2.049921240827624,2.4201173031129994,2.7133795747338234,7.352657470066245,14.522503193147507,7.686371622009649,3.572460744119546,2.031643358452182,-0.06437585313908678,-0.5131047782482477,-0.7291053893875353,0.014598719384822009,0.875570456671372,0.9166601540703083,1.8398009731568419,0.08328319038880778,1,0.125,0
15.597,2.552881068474635,3.242498213174456,3.5324324977933212,10.419060150442597,14.984428312121084,6.923570646214792,3.6177531517826065,2.922769952299712,0.5781350056685642,0.08613904953414236,-0.22663526960103653,1.3293088009488605,1.0223432188096917,0.560347367459746,1.9043698780928653,1.3034972673713399,4,0.5,1
15.657,2.3659920250427504,3.88857826337041,4.88324902996333,9.838660182991143,13.092283728347365,6.469281861052455,3.7511635569625352,2.9398251510266986,0.2662584139974024,0.6770209856784916,0.8468977943958106,0.9419324437312238,0.4766941133674436,0.3675025500812172,2.1273475275190927,1.3287360102058892,3,0.375,0
15.717,1.5079319782708953,3.1039018440825976,4.495586500393376,5.134275278397862,9.606439362424638,6.012940847012433,2.965115007914176,1.9097976155635805,-0.8193152766041166,-0.09744898621559496,0.5128083510803394,-1.1946134671202133,-0.5099050434729993,0.1352235469628442,0.6685325153716092,-0.15870248183283056,0,0.0,0
15.777000000000001,1.5938514675839968,1.686745590631701,3.888501662988536,4.937701027073731,9.472051657064343,5.40269201964229,2.6292298156156604,1.5696413071592776,-0.7203994153501387,-1.1708882290157823,0.09961690986467936,-1.2423923339837417,-0.5637701822602847,-0.14386516382179806,0.140744202483066,-0.5605705230422678,0,0.0,0
15.837,2.3708820091823553,1.5895017988847282,5.002935369514717,8.126809775989132,14.143293387984592,6.5678307740686925,4.421146914901117,2.488113240502074,0.30676997152635926,-1.2156173793076022,0.9385306958236858,0.3020863826336186,0.6931958989683561,0.36885942972110675,2.9223760083410397,0.6451493989702382,1,0.125,0
15.897,2.252617694708275,1.9081184519929772,4.89957863294251,7.6018368720712495,13.855053059876052,7.017622591906295,4.99673934349266,2.676055354331158,0.1124506363291581,-0.9271676020945682,0.8706693805113314,0.02509246915292973,0.604396347181209,0.6131163127178363,4.154643164760038,0.9858067612234894,2,0.25,0
15.957,1.4976524983188335,2.1358588711678097,3.9415948489411434,5.165678965984905,10.266256712668143,5.898737803654356,3.474029628241788,1.910243112767704,-0.7870605864188617,-0.7468641383042772,0.19324771713293454,-0.9262404230559688,-0.2876436288742065,0.08056308453318492,1.2645430203602228,-0.11496441430834857,1,0.125,0
16.017,1.3647855606986397,2.2525186160352284,3.83660428956061,6.844218605173229,11.812107686853023,6.175785637992227,2.779052827393949,1.7984332664407148,-0.9326415255984362,-0.6526433295097297,0.12001681659813968,-0.23402629448664183,0.12160097619568062,0.1892230087739251,0.32904481836459804,-0.2215079400063694,0,0.0,0
16.076999999999998,1.1668343906083618,1.9358953099384928,4.285586818740154,9.003124579502579,13.17952511513678,8.530400768802915,4.015463449951368,2.1119554906400277,-1.2236144032397325,-0.930317538134199,0.4403163451538373,0.793563268471936,0.5344509708395512,1.2695699466944097,2.4750174283185964,0.2579530408312962,2,0.25,0
16.137,1.77364427220526,2.4878963311533364,5.553476217616315,9.475842305020521,11.727258012368717,9.443627151066824,4.965149537083102,2.687505202448586,-0.6761159536323115,-0.5659849185951306,1.3518389458592825,1.0150716517312295,0.1134552727947259,1.7653631118548418,4.168858179059913,0.9796635417007122,4,0.5,1
16.197,3.8344984251624856,3.8570427209309806,6.014175389224495,8.909718471337797,9.550129953486593,9.785480860724862,7.983669086301121,4.74443471298966,1.879648896767723,0.6015275238563452,1.7314241395509569,0.7678926541307884,-0.4663379510002145,1.9024209360424642,8.657955247081231,3.625567396901014,5,0.625,1
16.257,5.484164391676038,4.684158766788367,4.80538910365532,8.060154808696252,9.558126692149603,12.088079009266071,10.914947793469576,6.708319190178555,4.309318451624439,1.3459099650051805,0.7573074025823902,0.376851601303471,-0.4563003762475311,2.959417246271384,14.228752551121792,6.717795877814484,5,0.625,1
16.317,5.046867209393791,4.187220079673028,3.300854569743289,6.826236674178883,10.054134489819294,11.325976572315513,9.50912949815356,6.216498114557935,3.5720183259178335,0.8590993410630592,-0.319498157601209,-0.18293774334306154,-0.31218893355978633,2.487535781811864,11.08530667039696,5.829270672735117,4,0.5,1
16.377,2.951785953923863,2.9243985504872714,2.4936482182603457,9.75984792943427,11.596372849981298,7.201688330950995,4.900814153848061,3.756470256380982,0.7661947123040412,-0.15287439828485963,-0.911314536922401,0.8787370168032419,0.061069218716458984,0.5787105003203247,3.131516283050154,2.243928851639277,4,0.5,1
16.437,2.328276923932857,3.025026976306393,3.0818034579399014,12.94203894278703,13.896164006502621,7.376592743564,4.170800193764368,2.6991240954135916,0.17796025519111577,-0.06130491292942816,-0.5564369522170842,2.5006927046604828,0.7125000695916235,0.6642095036930002,2.2976898561135264,1.05071637786859,3,0.375,0
16.497,3.6887615588236775,4.149046888727175,4.442640979987275,11.646917976867774,12.73996267652479,9.716194488231409,6.207896835456602,3.7213698530229586,1.9230854161753983,0.8706736364375952,0.5143204114306815,1.8821492354392675,0.3591085522772852,1.8440763903785191,6.122441535969681,2.448225946699153,5,0.625,1
16.557,3.822824828733577,4.3845005444311855,4.503754081894229,8.485856817637107,9.324289653703579,8.686248977462483,5.5490405896612724,3.8215633144673733,2.1301627848272315,1.0878515988944177,0.5941008660916063,0.5457930595757035,-0.5501991193675771,1.2842708964056526,4.688298624100303,2.577337706914054,4,0.5,1
16.617,2.6453873098260074,3.9794373652334367,4.216657265234276,6.918543716120549,8.032824212060804,7.198815383935765,3.622581287689006,2.6006541086420443,0.5891797973708622,0.7648019327828944,0.3916811512862224,-0.12821798228551604,-0.8674660996449816,0.6511902647827833,1.7392120138204248,0.739486967877859,2,0.25,0
16.677,2.5399419458497996,3.948939025415774,5.495683905476313,9.830820785011683,11.43469109586337,11.128902494031243,5.990488109775407,2.54110473707307,0.5034198194613404,0.7475610636445601,1.2914074253607868,0.9320977196947823,-0.0560307012288519,2.3455526090388115,5.234484282076614,0.7093420270565053,4,0.5,1
16.737000000000002,3.260833234324796,3.897282917576002,7.056297822189858,12.264896483669409,14.036945166303248,12.971088473783938,7.113702226975356,3.2023024711178163,1.4836273732448468,0.7051046304397479,2.5044010414103792,2.195743737555167,0.7503630550795415,3.4101251152259118,7.759069241469344,1.7817768662149407,6,0.75,1
16.797,3.27494018048029,3.75815551520848,7.938305894294149,10.745403735740346,12.394184297480125,10.437557049323132,5.66150750108605,3.034240639081388,1.5218650278231065,0.5916516423867731,3.200466877755975,1.508864770003,0.2763102756539226,2.1221477306456262,5.224088842524925,1.551528589024861,6,0.75,1
16.857,2.889819859635241,3.5744819755990167,7.621863206399188,10.767414517319782,11.502735960484957,7.663900285512022,5.1245011548893515,2.849402654733988,1.0320076843010033,0.4365140601893824,2.9404405871883044,1.5320424557975676,0.059421961571391686,0.9109957940575241,4.477472835661052,1.3098076239757057,5,0.625,1
16.917,2.3119287013869223,2.9590841207079563,5.716912953666067,11.718545413089323,12.475399948185398,6.8753700617103535,5.230166420454524,2.5150123138963143,0.21164606033663327,-0.11084389687337574,1.339080925721633,1.9877683823319172,0.33575509941036796,0.5574139792209101,4.670045124631904,0.7665936865843491,3,0.375,0
16.977,1.4855578103198819,2.08357333589134,3.761790124253189,10.321372421447608,11.051835596376746,6.00473097587073,5.148357131223669,1.958882797936475,-0.8328282965740921,-0.8164207125112362,0.022656790651002307,1.3673269974791327,-0.07530084342377698,0.1258874345849351,4.524537623302067,0.021822180644220663,2,0.25,0
17.037,1.939493313221823,2.463625607927427,3.860761165164295,9.195283086768004,8.135195625696864,4.815929624758177,5.577558502205684,2.3430536751656836,-0.41268383663642944,-0.5678471992984302,0.12060345245406108,0.8979556729081705,-0.8778412374868662,-0.430370565398089,5.267353246764922,0.5168116055970533,1,0.125,0
17.097,3.452399729547856,3.4024107955555585,3.9388329750895172,10.163020223865697,8.02016834356587,6.241278239079874,5.81936115301882,3.2711497285512587,1.5644672835384101,0.2625690354901488,0.1910748383281561,1.2815886456491903,-0.9343539562376738,0.12254520845232346,5.69866527954283,1.8459984279678883,4,0.5,1
17.157,3.736227511318425,3.4950048204277775,4.004558884331687,11.963935700132469,13.413394814060688,8.538652436645167,5.6019616600063795,3.608414449013938,2.0743533468652,0.3659845734552796,0.23618163652931648,2.0875415093194363,0.42157830280519365,1.3048965229549356,5.30802019491433,2.3909862785728015,5,0.625,1
17.217,2.7328730774704098,3.0456434266926737,4.763884782947166,12.20704307815253,17.37592142299168,8.63406620665105,4.68594078595618,3.0411377481408266,0.7454299215748931,-0.010611444609363632,0.795235666983193,2.2163511786200947,1.6596001038102532,1.3772425470724547,3.670745303960611,1.5114294899751102,5,0.625,1
17.277,1.8053735944695533,2.2925079704477604,5.437116312491799,12.070617815201356,18.42176344673092,8.009813162672687,4.012181934872505,2.0714582192098425,-0.4181622011278248,-0.7017832522387514,1.3138056215857679,2.157828730221033,1.9555109604219494,1.0953356670312937,2.6052022508309136,0.07725283869469188,5,0.625,1
17.337,1.8494265136784733,1.4543870296404866,5.347342548496409,11.050637517170989,17.88419284125328,8.717836396322445,5.271964518686882,2.2179689882097176,-0.4033522203864628,-1.3131761940158444,1.2453123808847837,1.6644610104498396,1.8048132138015056,1.4157850094593643,4.476732495030613,0.1672339783355874,4,0.5,1
17.397,2.9979655502677267,1.8762534266069548,6.173230113187624,10.89738149137775,20.515467509633293,11.188466399226945,7.922789272713108,4.0269129881407855,1.0255504581056878,-1.016276227383049,1.7889117863638042,1.5831916960013988,2.4399376208580263,2.5223543361250838,8.953080479885868,2.6702478024377636,7,0.875,1
17.457,3.416680422052927,2.768502721568468,7.538509822961121,12.676564981642183,22.0294664168877,10.93096377270421,7.907486970217885,4.590750327675725,1.7067944218060367,-0.2599784585202067,2.8768567580148052,2.3940390175652455,2.8653709410645374,2.2962756625391756,8.886734480468524,3.765444233268059,7,0.875,1
17.517,2.7962982797017393,3.1278629920053893,6.8866962968727385,11.977774250691567,17.79877189075303,6.855112716919645,4.732250472427168,3.5555519458846048,0.8503552939810564,0.058741603703404054,2.328582605030902,2.0827271934957845,1.6750572802433272,0.29920924825780976,2.9771696125475606,2.1772629128561,5,0.625,1
17.576999999999998,2.1099641333669164,2.779992947792756,5.075085636289494,12.042353611465707,17.831239525671535,6.525751459718573,2.484684014128157,2.214789960359889,-0.029128283534426053,-0.25203282199340693,1.0050489646377125,2.1151155282504353,1.7191081319207389,0.23451841330677548,-0.19059192803405936,0.18262246493304382,2,0.25,0
17.637,4.753489454906982,4.90954562905806,4.696866337253301,11.05665268439096,17.343012243698553,10.782635287692312,6.306742559099308,3.9143815056523086,2.4462088463888647,1.0706997964992284,0.743396221318119,1.5440717749235862,1.5187372544620714,2.224982491389194,4.814460567252705,1.7818029712861978,7,0.875,1
17.697,8.841268135971978,8.336642879022605,6.87039589302492,7.571404826503537,12.353805722688717,15.683523470083056,11.365769373105627,8.083239549959035,8.143050663703088,4.118410590125948,2.2110628421760414,0.11653199780430973,0.25125142578448634,4.583827075154273,14.39370586041367,8.003142529760067,6,0.75,1
17.757,9.148962003603376,8.671841237148277,10.433534444952189,11.086345954797702,14.122629714262796,15.319504470208802,11.437820890765126,8.71902826554921,8.81608155123087,4.535274432591852,4.8923984353890235,1.3558910812751135,0.6974868246774553,4.362656415042736,14.70950468767136,9.432053495445105,7,0.875,1
17.817,6.606498681223709,7.144651800509416,14.508355565027037,21.8586490701347,21.260315884187765,11.525038381595946,7.743352325815356,6.335832756335665,5.7189046807491515,3.3573653049305165,7.9842554710925855,5.88176120723269,2.581074589994362,2.706563593935279,8.726335442862792,6.156027431721976,8,1.0,1
17.877,5.019627115912205,6.219423747745238,13.910777387910375,25.24645575639374,22.903210927593214,10.526694166995874,5.660274687662902,4.704652425835263,3.595191428625157,2.549423157620931,7.290444517844281,7.796781493291003,3.1064655228205065,2.2640093375365455,5.173790813299907,3.782479682104848,8,1.0,1
17.937,3.269331235910088,4.702609793845422,8.127674718660918,18.05313659604945,17.16218902007138,8.754488389366285,3.5733318104889653,3.070829356093597,1.3302596103400692,1.2958600392802155,2.6649565441524836,4.281095014917541,1.4675368235784474,1.3836572256299993,1.413441830495376,1.4209127721097168,8,1.0,1
17.997,2.539274747325788,3.5214066461092757,3.9780473068914146,9.34603693271325,12.127588205105441,7.237730469252577,2.3415754472456283,2.5022963515947803,0.5756301167302043,0.37437437559433934,0.21284888287817885,0.7522617290075142,0.21895303183595172,0.7188646018240609,-0.3001673230716292,0.7814377837559627,0,0.0,0
18.057,3.541099106927998,3.7600878489628133,3.591452517663868,5.527904804150273,13.0677929979276,8.265191571629163,3.939165491122857,3.4019565714371045,1.7571732459473808,0.5421795850539238,-0.06661241119092845,-0.7688137698918186,0.4617403644760218,1.1766066580511019,2.0679602476030294,2.019863261965177,4,0.5,1
18.117,3.9399844262246444,4.204373427155791,3.7070249850252313,5.095832666488443,17.708697155753423,11.078444388611354,4.615615942229394,3.5032254740199127,2.3533920013591105,0.9461810451637728,0.008860954502208454,-0.9527695995403717,1.6813584817772587,2.4611695306270316,3.5498316174589957,2.1865480729094786,5,0.625,1
18.177,3.35526339865997,4.168161917614102,5.300507738323774,10.170632795506599,22.376793152129142,13.524994913914766,3.800102647458201,2.8414812260335998,1.6047830144826083,0.9241578171879355,1.0933345491695223,0.9223434676194184,2.968291264574409,3.6559230529236486,2.17266657149057,1.2777999179062964,6,0.75,1
18.237000000000002,2.62719681215704,4.237045778770893,6.721595697516321,16.066357769895994,19.655256391037696,11.539080637861945,3.4026465154800345,2.547103944837751,0.646906683116333,0.9835376985966319,2.269136388916919,3.7755330440054453,2.0289079402020955,2.4779997245389933,1.5743328788623838,0.8781519838797841,5,0.625,1
18.297,3.0618763753269143,5.338854055098853,8.038783851106327,17.40949783654517,12.629456130584922,6.638216792063881,3.7874850481517215,3.0224654676089093,1.0336887027368047,1.7569665951572622,3.198644557885478,4.496779846401681,0.31791011544568115,0.3403836877177644,2.194709182245487,1.4325826081430053,6,0.75,1
18.357,4.846806119486636,7.242698709711508,10.232376033267892,16.324500044162217,15.655824839998262,6.634397022820178,4.700580707351373,4.655873271865602,3.336789369587939,3.343195920545353,4.823994602841553,4.033080892464891,1.0772105241212635,0.3814121143251487,3.7130409459002394,3.6640581016757654,7,0.875,1
18.417,4.835601064552879,6.596717242175241,9.534461649465094,14.50182053683295,19.189640172730076,8.336830781994719,4.492925622766789,4.732184513948103,3.3707485616423845,2.6746386647775235,4.182798599437986,3.1580449460625437,2.1602225071462167,1.2381823659062947,3.248705120699803,3.7966703752487665,8,1.0,1
18.477,3.709230883212726,4.226820485029003,6.352784990605417,10.901876219671182,18.171692594325563,8.257130264017256,3.202860574265618,3.125835332687912,2.034812836794274,0.896118969900376,1.924125123863235,1.5855004210010784,1.86477605512899,1.190912127970155,1.121874386792327,1.5289130843983276,7,0.875,1
18.537,4.3632728288991185,4.836515224206291,5.48500716801812,8.917583926273362,14.765048107791525,6.361923524751701,2.802689247161753,3.1330322261371677,2.846457004777029,1.3791574945046425,1.3563492109821846,0.7696775362436338,0.9098595042263716,0.22019453203076145,0.5083465710388391,1.6031421642152612,4,0.5,1
18.597,4.425692332686742,5.210715160121834,4.662635298219396,7.198784750039207,10.184977198268987,4.2030073632534295,2.2536234998022495,3.2973354677798627,2.956987717452693,1.7580744697481008,0.6170798218480423,-0.07826620870660805,-0.4172478094857355,-0.7438848972138445,-0.614611245395878,1.8746029342994805,3,0.375,0
18.657,3.2202575919658827,4.315525463048477,2.8883404658836316,5.103669173742594,7.170221730724222,4.439047127787286,1.91852307071312,2.242120096747892,1.3388302328355888,1.0301436730861666,-0.6829402075262001,-0.9351372051347367,-1.1124967190680373,-0.6382878104930974,-1.0848130019780464,0.2568440392405522,1,0.125,0
18.717,1.9838083242901285,3.326332890137192,2.4854310860951023,6.7669524741028475,8.77968785131558,5.065499826014285,2.63290223266261,1.2703055889937456,-0.26076828725993023,0.16024722724429252,-0.9131304693927665,-0.30026952454762584,-0.6863432751942216,-0.31093043468111753,0.1874590767680416,-0.9797918187949958,0,0.0,0
18.777,1.15797713354837,2.24482933969761,2.490168568295481,8.891084282759678,10.125003119557295,3.9530819711627547,2.3828798719114728,0.8097995079281548,-1.2247814047684236,-0.7026896941068278,-0.9166382884104732,0.7416720999187811,-0.2927649572359681,-0.9123775145697998,-0.3583139763514008,-1.6957901508447373,0,0.0,0
18.837,1.0222722618465878,2.1108684303261547,1.7589298467746954,8.65995386417879,9.07080020371152,2.640611797428076,1.763136361227334,0.5093052067755175,-1.3655690428143101,-0.7773485049370166,-1.4996284991506617,0.6407867959073131,-0.6302413013993066,-1.4525156341927214,-1.3358561632471637,-2.0732776259372483,0,0.0,0
18.897,1.3198043726184991,2.27640692900392,1.2166311911256964,7.091055182255925,6.2039158079945675,3.7989668255979714,3.1323334385249897,1.3977915564880135,-1.0050820522566277,-0.6252068110715973,-1.8575823481393605,-0.051532011669399524,-1.432107846145892,-0.9797388359698799,0.6899568563089682,-1.0802363213021986,0,0.0,0
18.957,1.8030816518873565,2.0443318585777677,1.6480180252904957,5.661337859644311,5.486293003812113,5.34686377038369,4.310037315280862,2.415317821854198,-0.394715806287512,-0.8207632142889797,-1.580702347908866,-0.6805259302694253,-1.5803594807008288,-0.19020823992767202,3.0802824587055233,0.5821056811539725,1,0.125,0
19.017,2.2921596521018923,1.6932532103767854,3.4759165739268734,5.72844738243486,8.929250291825147,6.879996621111087,4.422936462475239,2.558036978535488,0.25596319749379626,-1.1169674118910224,-0.37046143222095457,-0.6894919286944529,-0.7158220695733464,0.5305329500193977,3.3108194575744885,0.8598343207014637,2,0.25,0
19.076999999999998,2.1421834707859384,1.3190592507228711,5.034099469848615,8.903233291556107,10.6693502786045,6.979307318243519,3.6350106663026405,1.7706149804903857,-0.006645455733971813,-1.4184920487246198,0.9599260794509871,0.6070999331883774,-0.17692881177898365,0.5602178542846717,1.8078325023043809,-0.4023027566998636,1,0.125,0
19.137,1.3453305758951688,1.2244850809716035,4.6317322279497635,10.002348029551912,8.19135577392363,4.799590454843441,2.2454677733552915,0.870731002830751,-1.0759730392596907,-1.4917240349826877,0.6104602383729558,1.2002677950024832,-0.9665978512716532,-0.5948216840784369,-0.7197373065302379,-1.6177421816199187,1,0.125,0
19.197,0.9978528485669447,1.2842838957684668,2.948908411641966,6.890126652805583,5.471901415845065,2.753621407198493,1.0319896083544553,0.5927728993568965,-1.4091526749216345,-1.4458154325316563,-0.6182347343189618,-0.4393477936767151,-1.585525951426855,-1.4124967129211055,-2.645211983259178,-1.9170734006463652,0,0.0,0
19.257,1.3907165233495709,0.9964773592570408,2.7109658802327172,4.6647225113338395,11.745214871798654,4.524623829815091,1.224699729443682,0.9101208149836867,-0.9188447476974706,-1.7366838403485503,-0.7649327655013604,-1.2545182452365824,-0.22287992314164404,-0.736541083773266,-2.428182259667025,-1.5080373720091844,0,0.0,0
19.317,1.6378186023900418,0.5739795849499407,3.810651272306007,8.977254580371412,21.55405248158601,8.417041213868156,2.3416401802593536,1.262022285753107,-0.5747045018359537,-2.032899836695467,0.04537552256483212,0.5047158086281537,2.5511053425143655,1.0955498914043273,-0.4531717312820193,-0.9738078933347242,2,0.25,0
19.377,1.6082222533356927,1.1216369199037668,4.626866158188595,11.462008067204001,25.546417443464843,11.268025821909156,2.814695108715275,1.4812649703730063,-0.6113001661537729,-1.678393938961073,0.7085208759283996,1.8883587994943811,3.875206650348185,2.6088455579249694,0.5679350275146179,-0.6494500230433763,3,0.375,0
19.437,1.8114261422466242,2.078286025682302,5.133041439226314,12.953014608742404,24.605022741584364,12.362578461181556,2.705995054085549,1.8092161388939707,-0.37167240480483116,-0.8639496206769833,1.088226754801397,2.508876627857828,3.6279904798861513,3.146099863830886,0.379518430835043,-0.20047997364944678,3,0.375,0
19.497,2.0230667426116566,2.577586331937748,4.689714997313979,15.74134987582886,25.344850906268395,11.211389957846942,2.3094254019740905,2.0451588523590445,-0.08016005863652782,-0.38132577441259213,0.690119498886448,3.737583165790138,3.827715374134072,2.5464083338590684,-0.3615270139984708,0.16256396580631763,3,0.375,0
19.557,1.920423819916058,2.3900578634251715,3.739590826492893,17.364098416681244,25.665197914123063,8.598230667500737,1.8142310342892778,1.7649409719237714,-0.2135018496635492,-0.542479343469728,0.009396180501852675,4.490251431591671,3.9167011758341297,1.3324435750236907,-1.1530106519306222,-0.2859244150706431,3,0.375,0
19.617,1.97700111682586,2.1431456143790175,4.562199723548703,16.063953225262143,24.340857756474065,7.672749111275926,2.0742560433885178,1.3475103578213352,-0.140576849812972,-0.7346261919551478,0.5898996589053306,3.872941255288619,3.557363511097425,0.9351868901167625,-0.745628646676319,-0.8386648656155544,2,0.25,0
19.677,1.9704902735493801,2.289274403161927,4.738196004893625,12.32701571659115,22.477099648386748,7.881981902530484,2.539337370879054,1.5273908842291914,-0.15674168890000137,-0.6173230917470941,0.7382210079312196,2.167943467304397,3.042949813914356,1.0357898110142325,0.08435392971065643,-0.6045834405580836,3,0.375,0
19.737000000000002,1.4474264501436638,2.222603611523283,3.3861201767028586,10.007863799292384,19.413262779265676,7.896807305646905,2.4605825093910223,1.7712301619341946,-0.9360118453933729,-0.6849365778027723,-0.3111735861626303,1.2402183577230843,2.1919199834947363,1.043280828450564,-0.08335277453331935,-0.2432354616332698,3,0.375,0
19.797,0.7133201874926376,1.559067031708138,2.6309321151837466,10.301863669279133,16.18623552830284,7.2846835716899925,1.6548239443220034,1.4466865728299108,-1.856004960112708,-1.3115813689515345,-0.7873024462048326,1.366295419711389,1.333434160227042,0.7374970819318188,-1.748784745578652,-0.7952069662970277,2,0.25,0
19.857,0.6721295862664846,0.8243401294563149,2.621867604949435,8.535597457247682,13.502659215414482,5.93348503116545,0.599651938643196,0.9750754791785462,-1.8923896019074993,-1.831201831091951,-0.7966817526876496,0.44675736388515147,0.5949221488208803,0.08763407188255685,-3.3976939257679164,-1.3703143493936574,0,0.0,0
19.917,1.2215312982375317,0.6714946897422899,2.0518177509927793,5.069503611787483,10.617096151149765,5.2094207571116575,0.3448902444223029,1.0247419190548346,-1.1763908406804138,-1.9433004733531092,-1.2958008094779325,-0.9796360368574483,-0.192282191794191,-0.2388052941013187,-3.6877560547759844,-1.2947405315627256,0,0.0,0
19.977,1.4330530967186719,0.8263154483495964,1.2240057286847665,4.024453086886307,10.547217165273468,6.8167761010680525,0.9339173560118016,1.0305376237139103,-0.8345083504460374,-1.8471892349482848,-1.890845001214058,-1.3846288595965193,-0.21251109477637695,0.4488621649591347,-2.855467674608775,-1.284594467701846,0,0.0,0
20.037,1.411860965109407,1.6169762630079902,1.7286415819730183,5.331530325509447,12.228751318283342,7.716557748139649,1.619776798177082,1.071820430996996,-0.8598682977874059,-1.2618029090661294,-1.5843075764059444,-0.8722667275163145,0.265387336317573,0.9378350303523805,-1.5680499146056415,-1.2279259266478977,0,0.0,0
20.097,1.3458815916402362,2.1090283592919317,3.257959284201071,8.06747645848783,12.092792938463742,6.390749787116491,1.764568784134257,1.001583507631458,-0.9511489683834206,-0.7696620248629649,-0.4361719904685544,0.31483175380535017,0.23679884182197444,0.2803538021259679,-1.2384065423801096,-1.3459759869545547,0,0.0,0
20.157,1.1789273884553746,1.882374210172064,4.559350418064055,9.754802950132708,10.2661692046987,4.635229670056232,1.3914664214526355,0.6648468922883886,-1.1619247793246517,-0.9701110712622975,0.6273041593854446,1.1374985130435216,-0.29474197580615474,-0.5319783400639407,-1.8971456255332384,-1.8662996174133781,1,0.125,0
20.217,1.0374663456199678,1.4134172232990714,4.8373678775796405,10.110880760728618,8.096085125089894,3.573074659174191,1.1087153585917273,0.41746392644215913,-1.345505141238867,-1.3414296703903748,0.866215201357091,1.301564727350964,-0.8817688200561711,-1.020213741260096,-2.352081261613574,-2.1709134056306714,1,0.125,0
20.277,1.0369928009394973,1.427056418641664,4.909829394912998,11.439886577054775,13.260468889244004,5.7764797991574035,1.3901470733476782,0.7741142517672879,-1.350709529385585,-1.339651313325035,0.898592838405151,1.8507017377415034,0.2320575882258661,-0.20347558291697798,-1.9349592345131323,-1.765151062544538,1,0.125,0
20.337,1.285703982266174,1.8737343265814503,6.179041335286164,13.493410682441123,20.395086355726416,9.246668683142042,2.000127875588181,1.3782948104198536,-1.039100771053943,-0.982380311055355,1.80492880508124,2.7627732448133084,2.380835722479318,1.5666668391829341,-0.8814954743838249,-0.8673403692703907,4,0.5,1
20.397,1.2244733572003401,1.6478895319665612,5.674060512247862,11.70829295894962,19.337728692155764,9.154108041198288,1.9698792433240635,1.4686474449669185,-1.1329978009412205,-1.2578935595667848,1.2740508826601213,1.771752263620133,2.0416790056170657,1.5391232608332057,-0.9417697655162455,-0.6844946974991898,4,0.5,1
20.457,0.9510438364235205,0.7599698678087448,3.0753034913946515,7.2975640880234725,12.835991087388432,6.320802286072782,1.4462251487263464,1.145699105281495,-1.4581204909023935,-1.9350685114964312,-0.6146105739233697,-0.016859219606511777,0.3716480095622692,0.2390704551694853,-1.7908008389968895,-1.1294374621005285,0,0.0,0
20.517,1.016262953092685,0.7272609472432281,1.6924081332227812,7.24186024011669,9.715596988246421,4.717172892724904,1.3147374109928442,0.9000923852551712,-1.373986844243652,-1.9302561161291845,-1.5253420968756295,-7.149033015883359e-05,-0.4279624941897327,-0.4751011139401389,-1.9909107325277289,-1.491074776941966,0,0.0,0
20.576999999999998,1.3462613179251066,1.312330327799539,2.3632572766367,10.595159939310062,8.562761612881822,4.663280490710663,1.589474302680494,1.0272069725421487,-0.9833686727591568,-1.467456654857078,-1.1714896869221254,1.383865887727558,-0.7387671318749655,-0.5159920903371868,-1.570046900989434,-1.3720824580846875,1,0.125,0
20.637,1.9888022795071825,1.998968658403368,4.570888332261011,13.852260787264388,13.397870014846239,7.874859859456072,2.5074151856631843,1.9652560266895058,-0.18549509846196952,-0.8873678875709025,0.4717398187712833,2.9082466827994966,0.37170474344136634,0.8102555947239608,-0.12465725538056188,-0.13386255665362942,2,0.25,0
20.697,2.2678675527662064,2.286004777500282,5.841543131152292,13.614339162241333,17.314651897455473,9.977302839472115,3.1788636970371567,2.387726736278751,0.2316344729173069,-0.617149326621843,1.616104780238073,2.7829692274627678,1.6026778231431134,1.9673271314673988,1.1542218282817485,0.6161639540367935,5,0.625,1
20.757,1.9183140839106774,2.188666274265547,4.913664241467149,9.422327807116435,13.646024368998814,7.68610034105504,2.685369734953342,1.8027455108539652,-0.24436734177528016,-0.6970985595077659,0.7637221581276225,0.6792042099386012,0.3220861110086643,0.5868528903597918,0.15046162485128525,-0.3516536430585399,0,0.0,0
20.817,1.4788992599468047,2.1757668900347302,2.7315269731762357,4.470845213643054,6.163173177799769,3.433476428823622,1.9926878438387046,1.2456349122272132,-0.783987281424126,-0.7068715147581733,-0.8863214271883217,-1.3330321242709349,-1.4900690181264347,-1.1566281278876593,-0.8776307118463053,-0.9980686179084194,0,0.0,0
20.877,1.2690621266697673,2.069880726482703,1.7472169498258927,4.300412442092407,8.280341788282463,4.231887204303747,2.7601988717588837,1.6595319422269703,-1.0497507510416548,-0.799864547496604,-1.4654792616700723,-1.3863146097794667,-1.0568609695063456,-0.8444845994905453,0.33282176406421166,-0.42859723854507187,0,0.0,0
20.937,1.3051799355935085,1.673614465615765,2.600542071880039,8.316378567210526,17.318992301860572,7.494810025237397,3.601186089434306,1.9569130503867411,-1.0055404173576525,-1.1386522969912203,-0.8871527537888512,0.28427678469256645,1.3339354885592432,0.7042679112698041,1.867436830062429,0.02870448021858868,2,0.25,0
20.997,1.1730947127850948,1.2808811216781533,3.97659743316799,11.399634202184698,22.9256140972996,9.033769478269551,3.1264929536667863,1.62522911797627,-1.215135441180496,-1.4513709585916077,0.15755804762590445,1.8397238735478672,3.1582798339189,1.575553580467336,0.8001154927192927,-0.5406289110121879,3,0.375,0
21.057,0.9192516363752482,1.4395630570233533,4.507812329444149,10.881486943384056,21.395806423889734,7.852234171499484,1.6227316039345687,1.0110799616436876,-1.5077095864486811,-1.33900524989273,0.6088609427084025,1.5607266423698283,2.686050508587806,0.9630192633582287,-1.7276965113173643,-1.3401421844687211,2,0.25,0
21.117,1.0245394448579195,1.7563470618282297,3.55422514991408,7.110797290365182,14.615040295814586,5.6975668299290945,0.9235953754862009,0.9336123558880475,-1.3690499756247787,-1.0628020525269732,-0.21371210607596103,-0.32523133162575,0.6493860709428362,-0.04869072229162288,-2.6604997448435146,-1.4274075093402943,0,0.0,0
21.177,0.933934439837339,1.4232614675883122,2.095894808933331,3.062206029408539,7.5206219028335175,4.825675803689929,0.8423384992005262,0.8271657409986582,-1.4950535674442502,-1.4123922770536927,-1.2449316472905416,-1.9079395026253119,-1.0832849350250988,-0.4088740496065937,-2.806555578318497,-1.609983195166321,0,0.0,0
21.237000000000002,0.9036610132036738,0.7145509171146487,1.7193724483023578,2.9631750006938975,6.230301001718922,4.866748116245329,0.7765130579806111,0.561970247870279,-1.5378628381150898,-1.9374007252696346,-1.478901995740116,-1.950138616567644,-1.3654381878209108,-0.3890952083692312,-2.9167589388309043,-1.9671117256600377,0,0.0,0
21.297,1.4784135117350985,0.9531808291229826,2.996468584628341,9.638403751204574,11.678485721423515,5.266805704665549,1.325088863661586,0.8040102501612943,-0.8645362775627436,-1.7824804868108126,-0.6816650802224126,0.3826215720660164,-0.14638091038856246,-0.22948689930276758,-2.1566786580865527,-1.6928030767279774,1,0.125,0
21.357,2.1834723700027396,1.6084059216113922,5.170556876478644,18.68578996162815,21.580160754173015,8.92964939007963,2.5760055251987524,1.4868522168686076,0.08870345459471034,-1.216945861410747,0.9737789346174403,4.652782727002846,2.5266292003350497,1.275280092256929,-0.09462507882014036,-0.7345798758856154,3,0.375,0
21.417,2.222086750158346,1.6673639581484567,5.381991588048163,20.50217809995772,26.660823459514024,13.395260319849047,3.2857812347784208,1.9763297916730567,0.14119170160537856,-1.143703520205162,1.1930797105984576,5.751938165953187,4.1820200203505715,3.534886194027658,1.3605520155687332,0.054780039161158776,4,0.5,1
21.477,1.5349420735620776,1.2688330839356297,3.44625551295139,14.042009910109057,23.516109769225032,13.856443124153989,2.939953644376743,2.0099611539418922,-0.8116565503339669,-1.458594416017956,-0.3598643971809316,2.6234203027516796,3.209914633104607,3.749741347454657,0.6955741477222954,0.09832180234650305,3,0.375,0
21.537,0.8768894374898586,1.016341272109986,1.6810414064405914,7.362534035643664,16.09754283868141,9.528724016312374,1.9778198824926894,1.5082823760680186,-1.579517314480948,-1.6666623196227197,-1.6112458150186715,-0.061999154472337274,1.1115958515440483,1.437555566620608,-1.045477291336135,-0.740032948764984,2,0.25,0
21.597,0.905279565729763,0.8911378106089318,1.384779360940328,6.996772255093016,18.007667158539444,8.297117932274519,1.3792066272999943,0.8330063543766627,-1.5449687345779697,-1.7636965668803086,-1.7743096925826902,-0.16500326072005891,1.529050763986799,0.9784239554654115,-1.9089473416540095,-1.6004485762015825,2,0.25,0
21.657,1.406465194697287,1.1058756201672828,2.4398800323131584,10.875411574614917,24.74766439138616,12.480218384497778,1.9459870741566314,0.932433425135697,-0.9198273627256898,-1.6001702579857475,-1.0166243098541197,1.502242727807606,3.58273698710556,3.059735074523713,-1.024688649968774,-1.4660230342221683,3,0.375,0
21.717,1.9845871847891206,1.5668116406496257,3.8794067134319756,12.39353667518321,22.150606885229656,12.087681770742524,2.1789912194716665,1.3479996738996909,-0.16127762862831888,-1.2331837225950943,0.0629435107038334,2.288292945873311,2.7859846423835197,2.8822910317827346,-0.5369470694275428,-0.8671593160550614,3,0.375,0
21.777,2.6377140185149632,2.2245493044389404,6.2362207946474175,11.232301961338448,16.820840691333675,9.201501639993499,1.808799150945405,2.0527060141932703,0.6774310100495429,-0.7001694342920995,1.7622336921013295,1.7810960282457629,1.5063641541569097,1.6392098690895776,-1.1748822976280373,0.08513946811665389,4,0.5,1
