Time,Fused_z,Active_binary
62.0,-0.33868664248578156,0
72.0,-0.3362123042773435,0
82.0,-0.3357948172471561,0
92.0,-0.33326374272041853,0
102.0,-0.3308165947205084,0
112.0,-0.3280082745065818,0
122.0,-0.32067889635186003,0
132.0,-0.2996678648388699,0
142.0,-0.254055593663462,0
152.0,-0.18114391970803043,0
162.0,-0.06942442499386413,0
172.0,0.06374443711863209,0
182.0,0.1942888218435661,0
192.0,0.32462724687049593,0
202.0,0.429373889253733,0
212.0,0.5035587557721537,0
222.0,0.548545732352891,0
232.0,0.570273635895935,0
242.0,0.5775024967387032,0
252.0,0.5792833694016388,0
262.0,0.5825437563064135,0
272.0,0.590568612300394,0
282.0,0.6029920027098568,0
292.0,0.6172088590065445,0
302.0,0.6304185292429728,0
312.0,0.6413269040621306,0
322.0,0.6508459350081339,0
332.0,0.6616077328307977,0
342.0,0.6765936030651956,0
352.0,0.6976227870835225,0
362.0,0.7245930637318465,0
372.0,0.7558973439231025,0
382.0,0.7895675128463886,0
392.0,0.8241548506855034,0
402.0,0.8586108012815301,0
412.0,0.8912414653005982,0
422.0,0.9185500509829877,0
432.0,0.9349272787294027,0
442.0,0.9336293891928851,0
452.0,0.9087400716615608,0
462.0,0.8573735523276123,0
472.0,0.781376191906515,0
482.0,0.6879887437372387,0
492.0,0.5890921235651523,0
502.0,0.4990846097713254,0
512.0,0.4320810085276747,0
522.0,0.38837583867682257,0
532.0,0.37428493945673147,0
542.0,0.3803233546149609,0
552.0,0.3977085611779618,0
562.0,0.42003092542207354,0
572.0,0.4715960740442745,0
582.0,0.5324242272383506,0
592.0,0.5927728005293598,0
602.0,0.6499497785200319,0
612.0,0.7001468501514091,0
622.0,0.739234164120173,0
632.0,0.7639397093416287,0
642.0,0.7727509616710965,0
652.0,0.7764221616856612,0
662.0,0.7830514473719693,0
672.0,0.7792166758718623,0
682.0,0.7679592287291838,0
692.0,0.7520660042820919,0
702.0,0.7339334137836326,0
712.0,0.7155707817958159,0
722.0,0.716678510171568,0
732.0,0.7359121347588002,0
742.0,0.7665558264652508,0
752.0,0.8038239143016418,0
762.0,0.8366745461810392,0
772.0,0.863238328701537,0
782.0,0.8823790297806138,0
792.0,0.8939881478583332,0
802.0,0.8991705680122253,0
812.0,0.9001110980420634,0
822.0,0.8994096642337959,0
832.0,0.8989347983637967,0
842.0,0.8987171340500859,0
852.0,0.8966486323398415,0
862.0,0.8893435552097863,0
872.0,0.8737523359324333,0
882.0,0.8550926290732832,0
892.0,0.8446726340498256,0
902.0,0.8309898306929799,0
912.0,0.8174019893659927,0
922.0,0.8068857119721335,0
932.0,0.8084332262591012,0
942.0,0.8184188191394838,0
952.0,0.8289644124715749,0
962.0,0.8354767002663173,0
972.0,0.8342229019105252,0
982.0,0.8237571723812958,0
992.0,0.8056947954483644,0
1002.0,0.7843908858280716,0
1012.0,0.7653936065757261,0
1022.0,0.768950210638804,0
1032.0,0.7853787035912879,0
1042.0,0.8050849346431155,0
1052.0,0.8220627084064313,0
1062.0,0.8318706192798637,0
1072.0,0.8410738059506577,0
1082.0,0.8527143946416678,0
1092.0,0.8554361316993968,0
1102.0,0.8484129209935147,0
1112.0,0.8369710160459699,0
1122.0,0.8266203968488165,0
1132.0,0.822573898288502,0
1142.0,0.8298544057218467,0
1152.0,0.8816723091719977,0
1162.0,0.9623604658859433,0
1172.0,1.0680237993505757,0
1182.0,1.1979704282578396,0
1192.0,1.3946956239500976,0
1202.0,1.6298154573572012,0
1212.0,1.8810694650389361,0
1222.0,2.1328450973176425,1
1232.0,2.3699627451287175,1
1242.0,2.5797183384955606,1
1252.0,2.7534680350935066,1
1262.0,2.8875750881618796,1
1272.0,2.9834897848166593,1
1282.0,3.051133005747371,1
1292.0,3.095223188923552,1
1302.0,3.11975800438257,1
1312.0,3.13173439241075,1
1322.0,3.1366710853218454,1
1332.0,3.147598069298261,1
1342.0,3.154859856325599,1
1352.0,3.157812623119998,1
1362.0,3.159651252044813,1
1372.0,3.162297854807724,1
1382.0,3.1662214155755555,1
1392.0,3.17475276682497,1
1402.0,3.1837625778121454,1
1412.0,3.188356211593494,1
1422.0,3.1867159773117075,1
1432.0,3.177346618898585,1
1442.0,3.158689889314878,1
1452.0,3.1287444574491112,1
1462.0,3.084853819754627,1
1472.0,3.025233072309808,1
1482.0,2.9441866794186864,1
1492.0,2.8362781294991204,1
1502.0,2.7042599883886447,1
1512.0,2.546149823006113,1
1522.0,2.364346936520337,1
1532.0,2.1648439943005497,1
1542.0,1.9575380220684715,1
1552.0,1.7560947475173114,1
1562.0,1.6028926764472078,1
1572.0,1.4898854564407866,1
1582.0,1.4021218762170813,1
1592.0,1.339980354265367,1
1602.0,1.3025325762415745,1
1612.0,1.2888775783751125,1
1622.0,1.2971801233870388,1
1632.0,1.3235693627898921,1
1642.0,1.362472914623806,1
1652.0,1.4080197698410637,1
1662.0,1.4554564549295668,1
1672.0,1.5018733712629295,1
1682.0,1.546141309214597,1
1692.0,1.5883927636822535,1
1702.0,1.6331855598897407,1
1712.0,1.6818711815319154,1
1722.0,1.731629232356469,1
1732.0,1.7824122039306953,1
1742.0,1.8338016321280377,1
1752.0,1.8847466566199311,1
1762.0,1.9334533296537337,1
1772.0,1.9775685809107113,1
1782.0,2.0146642213312127,1
1792.0,2.0533963243160693,1
1802.0,2.081256427296959,1
1812.0,2.09525240778594,1
1822.0,2.0952020608759465,1
1832.0,2.0820435161210513,1
1842.0,2.0572447120935595,1
1852.0,2.022191846504726,1
1862.0,1.9777808144650773,1
1872.0,1.9243475794246983,1
1882.0,1.861965709696261,1
1892.0,1.7910217554025971,1
1902.0,1.7128424940306237,1
1912.0,1.630032101094839,1
1922.0,1.5552358084702842,1
1932.0,1.5300010270262177,1
1942.0,1.5210682648747436,1
1952.0,1.5100021850979262,1
1962.0,1.488708295257601,1
1972.0,1.451953790576682,1
1982.0,1.4235075623021451,1
1992.0,1.379266632906268,1
2002.0,1.3271649187018357,1
2012.0,1.288100043881184,1
2022.0,1.2858114042750526,1
2032.0,1.3390555040871663,1
2042.0,1.491958121536547,1
2052.0,1.7124300902418186,1
2062.0,1.9665387583531229,1
2072.0,2.2363401480416116,1
2082.0,2.4947042688671495,1
2092.0,2.723425984824429,1
2102.0,2.9101439144016705,1
2112.0,3.0492735759986127,1
2122.0,3.142360787454715,1
2132.0,3.1974979703907405,1
2142.0,3.2274509601079098,1
2152.0,3.2464778598743873,1
2162.0,3.2664722958072265,1
2172.0,3.2937294832915263,1
2182.0,3.327700773084093,1
2192.0,3.3622502583024887,1
2202.0,3.3887100869292537,1
2212.0,3.3993717432841386,1
2222.0,3.390224956826203,1
2232.0,3.3623156653330724,1
2242.0,3.321565415605989,1
2252.0,3.277170550221284,1
2262.0,3.238921581037589,1
2272.0,3.2140811384751213,1
2282.0,3.2047558773774694,1
2292.0,3.2066931612992766,1
2302.0,3.2099133129335993,1
2312.0,3.2008099165654205,1
2322.0,3.164876210604502,1
2332.0,3.0892951709569543,1
2342.0,2.965011356575172,1
2352.0,2.7882240284380657,1
2362.0,2.5717506668962793,1
2372.0,2.3411079485602153,1
2382.0,2.0822772016543336,1
2392.0,1.810274789162074,1
2402.0,1.5425973124023242,1
2412.0,1.2962879869171733,1
2422.0,1.0838955430133366,0
2432.0,0.9675340965973126,0
2442.0,0.8884540014735595,0
2452.0,0.8292844203449288,0
2462.0,0.7929593350828907,0
2472.0,0.8027389514025416,0
2482.0,0.819909271711605,0
2492.0,0.8462123728326403,0
2502.0,0.8805247324739324,0
2512.0,0.9374589559638766,0
2522.0,1.0079411540867302,0
2532.0,1.0579133594457746,0
2542.0,1.0840932140646862,0
2552.0,1.0914216050031136,0
2562.0,1.091618440489988,0
2572.0,1.098902692710444,0
2582.0,1.124010732214587,0
2592.0,1.1696750455741727,0
2602.0,1.2307259089915288,0
2612.0,1.2980889641750502,0
2622.0,1.3630719606548989,0
2632.0,1.4510523049160984,0
2642.0,1.5332666135554318,0
2652.0,1.5951975226025563,0
2662.0,1.6372191582294926,0
2672.0,1.6611135014535032,0
2682.0,1.6698080020657495,0
2692.0,1.667538406958547,0
2702.0,1.659923780890371,0
2712.0,1.6533540470644223,0
2722.0,1.653403061718513,0
2732.0,1.6626551384841783,0
2742.0,1.6790065762336954,0
2752.0,1.6955589945848675,0
2762.0,1.7024238545587629,0
2772.0,1.6897537608108717,0
2782.0,1.650924459354827,0
2792.0,1.5850344756875545,0
2802.0,1.4982239121048733,0
2812.0,1.4531423066235098,0
2822.0,1.419122092510261,0
2832.0,1.3997021884815806,0
2842.0,1.3973296118625558,0
2852.0,1.4057566294922004,0
2862.0,1.412206125011169,0
2872.0,1.4023510911252852,0
2882.0,1.3651059171797288,0
2892.0,1.2955692613460503,0
2902.0,1.2040482011743423,0
2912.0,1.1003096225261075,0
2922.0,0.9909349289836171,0
2932.0,0.893838970648033,0
2942.0,0.8068941625525005,0
2952.0,0.7359141977433723,0
2962.0,0.7143908606137813,0
2972.0,0.7227793253679029,0
2982.0,0.7409913047133102,0
2992.0,0.7663764625595324,0
3002.0,0.7960097110348607,0
3012.0,0.8258349144615689,0
3022.0,0.8505006276671101,0
3032.0,0.8641412800378732,0
3042.0,0.8618308790662803,0
3052.0,0.8412592982692122,0
3062.0,0.8042056446254356,0
3072.0,0.7573259595453936,0
3082.0,0.7113751805266957,0
3092.0,0.6800687295481322,0
3102.0,0.6771489297724812,0
3112.0,0.6877978729228924,0
3122.0,0.7061905761804014,0
3132.0,0.7265405171169843,0
3142.0,0.745325351979943,0
3152.0,0.7612766013917968,0
3162.0,0.7744486223849056,0
3172.0,0.7853683692158375,0
3182.0,0.7945526761538926,0
3192.0,0.8020975456274048,0
3202.0,0.8072342360078821,0
3212.0,0.8083879610002997,0
3222.0,0.8041510570130266,0
3232.0,0.7997058562206288,0
3242.0,0.7913076426323424,0
3252.0,0.7783232966593463,0
3262.0,0.7788828306319826,0
3272.0,0.7847616784314753,0
3282.0,0.7867493293920669,0
3292.0,0.7810020997342391,0
3302.0,0.772538740417613,0
3312.0,0.7625797557543249,0
3322.0,0.7419236319685595,0
3332.0,0.7139578520438897,0
3342.0,0.6856613579334689,0
3352.0,0.664874109085362,0
3362.0,0.6564946945715219,0
3372.0,0.6598304296804094,0
3382.0,0.6687228925068414,0
3392.0,0.6738770094609208,0
3402.0,0.6659843192866604,0
3412.0,0.6386803829011467,0
3422.0,0.5907190866547952,0
3432.0,0.5269195136642765,0
3442.0,0.4575225516279103,0
3452.0,0.4073191851030937,0
3462.0,0.37768598860219904,0
3472.0,0.3622074570547483,0
3482.0,0.36818023243915177,0
3492.0,0.38479786677150657,0
3502.0,0.40532079792445175,0
3512.0,0.4245940968931863,0
3522.0,0.4396912107794398,0
3532.0,0.4497524784993506,0
3542.0,0.45503196741751417,0
3552.0,0.45527314397756213,0
3562.0,0.4487054964488814,0
3572.0,0.43314277032735743,0
3582.0,0.40846500354694626,0
3592.0,0.3840503720271802,0
3602.0,0.3648506373492809,0
3612.0,0.35141458093931477,0
3622.0,0.35022347717481883,0
3632.0,0.3671591554848522,0
3642.0,0.4216054184656294,0
3652.0,0.48897530638549314,0
3662.0,0.5557605679899619,0
3672.0,0.6136558254803508,0
3682.0,0.6571904789406848,0
3692.0,0.6843814236381385,0
3702.0,0.6965774185817761,0
3712.0,0.6975639792367822,0
3722.0,0.6921651798081223,0
3732.0,0.6847989688508177,0
3742.0,0.6785172550373016,0
3752.0,0.6748223787807712,0
3762.0,0.6741077621816332,0
3772.0,0.6762798486928178,0
3782.0,0.6811910983540113,0
3792.0,0.6887805562947378,0
3802.0,0.6989960962501512,0
3812.0,0.7116081254373827,0
3822.0,0.7260260039085675,0
3832.0,0.7478709601717259,0
3842.0,0.7703090902817844,0
3852.0,0.7870634973399142,0
3862.0,0.7976552428499981,0
3872.0,0.8023531487339142,0
3882.0,0.8016265274517049,0
3892.0,0.7956194044120057,0
3902.0,0.7838549471304632,0
3912.0,0.7652301627563864,0
3922.0,0.738243019018663,0
3932.0,0.7013696896818534,0
3942.0,0.6615588709921238,0
3952.0,0.6458048491202552,0
3962.0,0.6175256057518073,0
3972.0,0.5772941472444539,0
3982.0,0.530662555362801,0
3992.0,0.49255256428316396,0
4002.0,0.4617233033196019,0
4012.0,0.4429000839529904,0
4022.0,0.4370827498841884,0
4032.0,0.44130192397249923,0
4042.0,0.45004065560740736,0
4052.0,0.45720558860753174,0
4062.0,0.45765209305183513,0
4072.0,0.4479537053406222,0
4082.0,0.42653220033887435,0
4092.0,0.39344041625055837,0
4102.0,0.35013841992819617,0
4112.0,0.30851443630861985,0
4122.0,0.29464420718372475,0
4132.0,0.28346965948783975,0
4142.0,0.2755703470671379,0
4152.0,0.2749286798874102,0
4162.0,0.28420533077691956,0
4172.0,0.30348317403824254,0
4182.0,0.3590140279925525,0
4192.0,0.4171572833822751,0
4202.0,0.4697228982472176,0
4212.0,0.5104425772009495,0
4222.0,0.5357659890530965,0
4232.0,0.5451293721121862,0
4242.0,0.5408362073772336,0
4252.0,0.527610088017221,0
4262.0,0.5117475979248843,0
4272.0,0.4998250942035306,0
4282.0,0.4972110462395164,0
4292.0,0.5069468069879471,0
4302.0,0.5293975472016375,0
4312.0,0.5726013922824665,0
4322.0,0.6621513089080774,0
4332.0,0.7801652841220679,0
4342.0,0.9030549046641803,0
4352.0,1.0234455881012976,0
4362.0,1.1354628801081084,0
4372.0,1.234577905553079,0
4382.0,1.3174074518907308,0
4392.0,1.3898115313814148,0
4402.0,1.451321353532874,0
4412.0,1.4954375599839276,0
4422.0,1.523925907807306,0
4432.0,1.5391594258881924,0
4442.0,1.5438588473224106,0
4452.0,1.5409709114744843,0
4462.0,1.5337720636043062,0
4472.0,1.5262454270706987,0
4482.0,1.526984203483557,0
4492.0,1.538102639756826,0
4502.0,1.5621097292387323,0
4512.0,1.6081196631813013,0
4522.0,1.678938411671127,0
4532.0,1.7646170613784484,0
4542.0,1.8541511597913964,0
4552.0,1.9356200521793983,0
4562.0,1.99916848651556,0
4572.0,2.0389537262447592,0
4582.0,2.0540043647588755,0
4592.0,2.0479824231052888,0
4602.0,2.0277038824232956,0
4612.0,2.01391279802346,0
4622.0,2.028781768841819,0
4632.0,2.0508403911080055,0
4642.0,2.070976711226651,0
4652.0,2.079072279449348,0
4662.0,2.067832367959202,0
4672.0,2.035114547430778,0
4682.0,1.9844495401704396,0
4692.0,1.9238604902215952,0
4702.0,1.8633386771229485,0
4712.0,1.8116852722219356,0
4722.0,1.773831290578623,0
4732.0,1.7497787129462945,0
4742.0,1.7355912831417528,0
4752.0,1.7257030533291617,0
4762.0,1.7150646098891005,0
4772.0,1.6998901032784182,0
4782.0,1.679655575360769,0
4792.0,1.6739813847779945,0
4802.0,1.6564935919966888,0
4812.0,1.6198074796655528,0
4822.0,1.5596551389532054,0
4832.0,1.4782408233894297,0
4842.0,1.3857773567649545,0
4852.0,1.298896047703391,0
4862.0,1.2353584161901532,0
4872.0,1.211258322757426,0
4882.0,1.2333895965369759,0
4892.0,1.2518604458784441,0
4902.0,1.2486441432351096,0
4912.0,1.2232052152604878,0
4922.0,1.1670123034388153,0
4932.0,1.0728506585236242,0
4942.0,0.9530675634498296,0
4952.0,0.8680753779954699,0
4962.0,0.8089793597814092,0
4972.0,0.7741974094647539,0
4982.0,0.7620088235550662,0
4992.0,0.761597481219429,0
5002.0,0.7590312079097892,0
5012.0,0.7440814788905132,0
5022.0,0.7139160565660888,0
5032.0,0.6733073644182422,0
5042.0,0.6325904680109636,0
5052.0,0.6042136636288118,0
5062.0,0.5984772990421248,0
5072.0,0.6197821715838104,0
5082.0,0.6654396048128608,0
5092.0,0.7276098720965795,0
5102.0,0.7964781895027269,0
5112.0,0.8767404328693393,0
5122.0,0.957049070087854,0
5132.0,1.0179699756994123,0
5142.0,1.0574380786341442,0
5152.0,1.0777189624036818,0
5162.0,1.084303479062438,0
5172.0,1.0842557759847007,0
5182.0,1.097926748595167,0
5192.0,1.1217002535661145,0
5202.0,1.1656677209296873,0
5212.0,1.221612729504925,0
5222.0,1.2769808368303577,0
5232.0,1.3282039181481216,0
5242.0,1.3722592152315738,0
5252.0,1.4074823497913622,0
5262.0,1.4337787601265386,0
5272.0,1.452269415785451,0
5282.0,1.4646280830960938,0
5292.0,1.4723965956182505,0
5302.0,1.4765336405091272,0
5312.0,1.477347715700118,0
5322.0,1.4747560364437384,0
5332.0,1.468601223056895,0
5342.0,1.4587263531889119,0
5352.0,1.44472504187368,0
5362.0,1.4343866483750156,0
5372.0,1.4226361853676786,0
5382.0,1.3993377436785572,0
5392.0,1.3618056009808732,0
5402.0,1.3304108385567786,0
5412.0,1.2953659022771449,0
5422.0,1.259705301944113,0
5432.0,1.2300812501408454,0
5442.0,1.2117463441004954,0
5452.0,1.2045347549905416,0
5462.0,1.2012445612621958,0
5472.0,1.2252702944093885,0
5482.0,1.2333531501113861,0
5492.0,1.2153940075154495,0
5502.0,1.188078406406354,0
5512.0,1.1507784786776818,0
5522.0,1.0993224514273385,0
5532.0,1.0413036717090427,0
5542.0,0.9833897960550055,0
5552.0,0.9300298257193407,0
5562.0,0.8833359423409688,0
5572.0,0.8440612313897835,0
5582.0,0.812932466642063,0
5592.0,0.7913267201943404,0
5602.0,0.7807683743333853,0
5612.0,0.781616947716588,0
5622.0,0.791908320775484,0
5632.0,0.8219555585373912,0
5642.0,0.8600858754869086,0
5652.0,0.8959104392137138,0
5662.0,0.922200897940028,0
5672.0,0.9349272333373837,0
5682.0,0.9530262999482733,0
5692.0,0.9726425154287746,0
5702.0,0.9836247038092523,0
5712.0,0.9862224044382946,0
5722.0,0.9802135214135079,0
5732.0,0.964997379702917,0
5742.0,0.940123135099566,0
5752.0,0.9059707532395551,0
5762.0,0.864292190618293,0
5772.0,0.8184312861590566,0
5782.0,0.7731620255188365,0
5792.0,0.734088654474029,0
5802.0,0.7064195105199438,0
5812.0,0.6930500804418078,0
5822.0,0.6929290949478762,0
5832.0,0.7016583595017185,0
5842.0,0.7144850500818478,0
5852.0,0.7290442910783828,0
5862.0,0.7457675837957032,0
5872.0,0.7662659914235649,0
5882.0,0.7912420737929178,0
5892.0,0.8193533961426834,0
5902.0,0.847480679507481,0
5912.0,0.8718237024668072,0
5922.0,0.88897047319068,0
5932.0,0.9043366259363095,0
5942.0,0.9242641028145528,0
5952.0,0.9291247503027222,0
5962.0,0.9193180038892373,0
5972.0,0.8969914916102477,0
5982.0,0.8736915036365176,0
5992.0,0.8616043658451693,0
6002.0,0.8481050310644217,0
6012.0,0.8534113569959243,0
6022.0,0.8506018304699372,0
6032.0,0.8429913652121862,0
6042.0,0.8386681603612607,0
6052.0,0.863153304287666,0
6062.0,0.9013049303819756,0
6072.0,0.9519738913549297,0
6082.0,1.0101058487232666,0
6092.0,1.0680168544752846,0
6102.0,1.1179408709501968,0
6112.0,1.154582006174666,0
6122.0,1.186813535256264,0
6132.0,1.210832112047727,0
6142.0,1.217764911654806,0
6152.0,1.2129863134777499,0
6162.0,1.2018378904081488,0
6172.0,1.1875614177705711,0
6182.0,1.1704265826448776,0
6192.0,1.1483742741851608,0
6202.0,1.1188008096610373,0
6212.0,1.0805739137299128,0
6222.0,1.0353446024246438,0
6232.0,0.9875699269678906,0
6242.0,0.9526758054067552,0
6252.0,0.9347917032384476,0
6262.0,0.9236104987033145,0
6272.0,0.9160673770728377,0
6282.0,0.9075592605726126,0
6292.0,0.8951171007610724,0
6302.0,0.8880471473491545,0
6312.0,0.8781032977922199,0
6322.0,0.8695111084064232,0
6332.0,0.8718594349756355,0
6342.0,0.8876502132088733,0
6352.0,0.9089924090713479,0
6362.0,0.9203855297933844,0
6372.0,0.9057567639797668,0
6382.0,0.8554109898247593,0
6392.0,0.7704066347982068,0
6402.0,0.6639465135446992,0
6412.0,0.5593638314705137,0
6422.0,0.49859815577874333,0
6432.0,0.48967399884520246,0
6442.0,0.5266752985770813,0
6452.0,0.5781485301008161,0
6462.0,0.6367602576581841,0
6472.0,0.6891827821413534,0
6482.0,0.7204912991190475,0
6492.0,0.7315848945755745,0
6502.0,0.7291628055340925,0
6512.0,0.7218141240534884,0
6522.0,0.7166929617251987,0
6532.0,0.7177479784363394,0
6542.0,0.7259613853509461,0
6552.0,0.7409676806285089,0
6562.0,0.7625925483350517,0
6572.0,0.7911376882979646,0
6582.0,0.8264259656298152,0
6592.0,0.8667123339930738,0
6602.0,0.9086208914748658,0
6612.0,0.9482967605031352,0
6622.0,0.983045357868573,0
6632.0,1.0126039143778514,0
6642.0,1.0395565216304916,0
6652.0,1.0687679960461325,0
6662.0,1.1058959622411908,0
6672.0,1.1552454204190645,0
6682.0,1.2176534633281402,0
6692.0,1.2893383383438046,0
6702.0,1.3638440477037832,0
6712.0,1.4481130298487115,0
6722.0,1.5145218882519966,0
6732.0,1.5563114509232066,0
6742.0,1.571884695258549,0
6752.0,1.5649847677375015,0
6762.0,1.5434886000173504,0
6772.0,1.5171678898197285,0
6782.0,1.4949957967129945,0
6792.0,1.4828196033614904,0
6802.0,1.482238547331955,0
6812.0,1.4941345690683188,0
6822.0,1.5139573641922632,0
6832.0,1.5359465527401177,0
6842.0,1.5557496750303343,0
6852.0,1.5772096251975405,0
6862.0,1.597163864086762,0
6872.0,1.610153439440642,0
6882.0,1.6151174937436727,0
6892.0,1.611921982380915,0
6902.0,1.6013789802554292,0
6912.0,1.5850205804160251,0
6922.0,1.564516609768691,0
6932.0,1.5407911649481099,0
6942.0,1.5131479864672739,0
6952.0,1.4788903305279204,0
6962.0,1.4338156256483807,0
6972.0,1.3735652723017155,0
6982.0,1.2953685803744552,0
6992.0,1.1995348120842546,0
7002.0,1.0901797543944496,0
7012.0,0.974946164065439,0
7022.0,0.8637155034699844,0
7032.0,0.7665162062299453,0
7042.0,0.691129800043115,0
7052.0,0.6411977965985677,0
7062.0,0.6155443045449386,0
7072.0,0.6088509550922113,0
7082.0,0.6132235610577363,0
7092.0,0.6199685010595857,0
7102.0,0.6460835544857193,0
7112.0,0.6725203348362105,0
7122.0,0.6854712294007531,0
7132.0,0.681267952324606,0
7142.0,0.6623979202805147,0
7152.0,0.6423759452129871,0
7162.0,0.6140944490233526,0
7172.0,0.5800026572447057,0
7182.0,0.5471711445924416,0
7192.0,0.5214098707347667,0
7202.0,0.5049719409219072,0
7212.0,0.4957821164286127,0
7222.0,0.48892725755105876,0
7232.0,0.4795803305215688,0
7242.0,0.4659536001128871,0
7252.0,0.4577620296753422,0
7262.0,0.4735464155904633,0
7272.0,0.5052844171582285,0
7282.0,0.5447179029839956,0
7292.0,0.5881645151709372,0
7302.0,0.6458837869762355,0
7312.0,0.7151648627869336,0
7322.0,0.7743252152873303,0
7332.0,0.8208450231015949,0
7342.0,0.8547687293424537,0
7352.0,0.8772670649191339,0
7362.0,0.8894276617130088,0
7372.0,0.8916895575388337,0
7382.0,0.883963454747815,0
7392.0,0.8661660067036315,0
7402.0,0.8387895104701549,0
7412.0,0.8032528934320083,0
7422.0,0.7620255450202358,0
7432.0,0.7186885873938402,0
7442.0,0.6841514729828939,0
7452.0,0.7001744573143278,0
7462.0,0.7242549483843892,0
7472.0,0.7558417344001758,0
7482.0,0.7929397090333052,0
7492.0,0.8322878378150418,0
7502.0,0.8699725610458973,0
7512.0,0.9021618506827498,0
7522.0,0.9256532267560795,0
7532.0,0.9381160601616668,0
7542.0,0.9380893624961759,0
7552.0,0.9248955737748596,0
7562.0,0.898638451553244,0
7572.0,0.8603714160221227,0
7582.0,0.8123854136522677,0
7592.0,0.7719565419924432,0
7602.0,0.7422603727511908,0
7612.0,0.7155751251810397,0
7622.0,0.6952034886558156,0
7632.0,0.6829931714893126,0
7642.0,0.6791133455732774,0
7652.0,0.6824296990012144,0
7662.0,0.6912137522804361,0
7672.0,0.7064443814812066,0
7682.0,0.7338482008378654,0
7692.0,0.7592737603281374,0
7702.0,0.7803110029016251,0
7712.0,0.7949026799692684,0
7722.0,0.8016922720926019,0
7732.0,0.8002526680383435,0
7742.0,0.7909446415034366,0
7752.0,0.774432471373781,0
7762.0,0.7511527980144062,0
7772.0,0.7211096317582304,0
7782.0,0.6841910212483094,0
7792.0,0.6408775850992198,0
7802.0,0.5929478503970935,0
7812.0,0.549539089748413,0
7822.0,0.5121436252024094,0
7832.0,0.4791596182795326,0
7842.0,0.452508560040767,0
7852.0,0.4326909597055315,0
7862.0,0.43679873020995263,0
7872.0,0.448887602840201,0
7882.0,0.46452181840893614,0
7892.0,0.48412109339141385,0
7902.0,0.5094023333035294,0
7912.0,0.5421328595616464,0
7922.0,0.5825843994405785,0
7932.0,0.6284709209702479,0
7942.0,0.7010629240852599,0
7952.0,0.7829382600047035,0
7962.0,0.8556073419796824,0
7972.0,0.90938642822853,0
7982.0,0.9425284239095186,0
7992.0,0.9572353498625085,0
8002.0,0.9588335861012445,0
8012.0,0.9540819034338499,0
8022.0,0.9489970508085424,0
8032.0,0.9469899473241178,0
8042.0,0.9481961513100492,0
8052.0,0.9503406693788905,0
8062.0,0.9506000150238847,0
8072.0,0.9474315081423418,0
8082.0,0.941539476156237,0
8092.0,0.9357104483055076,0
8102.0,0.9337530807295198,0
8112.0,0.9390739856987369,0
8122.0,0.953497462697766,0
8132.0,0.9767468248787909,0
8142.0,1.006583761957834,0
8152.0,1.0392536637810192,0
8162.0,1.0699156852834837,0
8172.0,1.0930350605814583,0
8182.0,1.102903849541458,0
8192.0,1.0943666253373312,0
8202.0,1.0636182902185292,0
8212.0,1.0088457243979405,0
8222.0,0.9305798218971371,0
8232.0,0.8318154197656183,0
8242.0,0.7180931647002713,0
8252.0,0.6134177940274577,0
8262.0,0.5564344946772934,0
8272.0,0.5146327023166143,0
8282.0,0.486939004059062,0
8292.0,0.47446776264312795,0
8302.0,0.4748480469771983,0
8312.0,0.48379082963764297,0
8322.0,0.496931423436517,0
8332.0,0.5108877407714782,0
8342.0,0.5234008611100001,0
8352.0,0.533016400190754,0
8362.0,0.5387930205162531,0
8372.0,0.5402618335250382,0
8382.0,0.5375435832200249,0
8392.0,0.5313511644223643,0
8402.0,0.5226577140871225,0
8412.0,0.5120404477632461,0
8422.0,0.49897856359819825,0
8432.0,0.48153025622559,0
8442.0,0.4567108218861773,0
8452.0,0.4287938239964369,0
8462.0,0.38982611044828036,0
8472.0,0.3524592263520654,0
8482.0,0.3306702167419797,0
8492.0,0.330075942488472,0
8502.0,0.3367427716803313,0
8512.0,0.34793813113660227,0
8522.0,0.363455435886747,0
8532.0,0.3817363162129285,0
8542.0,0.40048410448485006,0
8552.0,0.4174267469649702,0
8562.0,0.4307897138342871,0
8572.0,0.4393475427014098,0
8582.0,0.4423074672089562,0
8592.0,0.4393488410181294,0
8602.0,0.4308735134702659,0
8612.0,0.4182447975079828,0
8622.0,0.41412083895006113,0
8632.0,0.4147696618474399,0
8642.0,0.4159048156801613,0
8652.0,0.4179297639363154,0
8662.0,0.42022782229160227,0
8672.0,0.4213993431744567,0
8682.0,0.4198549915460985,0
8692.0,0.41451476349565486,0
8702.0,0.40532471519000535,0
8712.0,0.3933508334200754,0
8722.0,0.3803672911721606,0
8732.0,0.3744492130202659,0
8742.0,0.3926179967317812,0
8752.0,0.4070136810580094,0
8762.0,0.4145689794513764,0
8772.0,0.4123630067548186,0
8782.0,0.4181528320100437,0
8792.0,0.4158023424690005,0
8802.0,0.41250113549133555,0
8812.0,0.47252089392757013,0
8822.0,0.5217585382846253,0
8832.0,0.5556867008610049,0
8842.0,0.5753853503840658,0
8852.0,0.5834213126983689,0
8862.0,0.5829880336142329,0
8872.0,0.5772484361843071,0
8882.0,0.5689281931204863,0
8892.0,0.560138742961413,0
8902.0,0.5524072036742165,0
8912.0,0.5468242739409842,0
8922.0,0.5658653914166407,0
8932.0,0.596374130814842,0
8942.0,0.6257373542199156,0
8952.0,0.6523004442257191,0
8962.0,0.6745059573952978,0
8972.0,0.6910100554824454,0
8982.0,0.7009352030742977,0
8992.0,0.7040865936800624,0
9002.0,0.7009465287065063,0
9012.0,0.693357080832743,0
9022.0,0.6905078982224687,0
9032.0,0.6880922615090974,0
9042.0,0.685682739006572,0
9052.0,0.681912173157545,0
9062.0,0.6750420017889296,0
9072.0,0.6636703851132517,0
9082.0,0.6475312833528576,0
9092.0,0.6281888954914759,0
9102.0,0.6090972700653958,0
9112.0,0.5944904029391627,0
9122.0,0.6077003183819965,0
9132.0,0.625164608626898,0
9142.0,0.6384791918120594,0
9152.0,0.6520006415003331,0
9162.0,0.6579588224826227,0
9172.0,0.6539916738408633,0
9182.0,0.6477353910487887,0
9192.0,0.6462740102181194,0
9202.0,0.6528494842003387,0
9212.0,0.6672583236181806,0
9222.0,0.6806520406544079,0
9232.0,0.7115457004993262,0
9242.0,0.7293677631273607,0
9252.0,0.7321239003937061,0
9262.0,0.7230626970237888,0
9272.0,0.7101064192629396,0
9282.0,0.7040194153028585,0
9292.0,0.7226136573490645,0
9302.0,0.7712065534461912,0
9312.0,0.8341824191953122,0
9322.0,0.9099574881686385,0
9332.0,1.0037488100332677,0
9342.0,1.0906082291953625,0
9352.0,1.1636522062295402,0
9362.0,1.2185996795797558,0
9372.0,1.2531793042000712,0
9382.0,1.2664874855887984,0
9392.0,1.2588576641337772,0
9402.0,1.2323682908842295,0
9412.0,1.1916058157794993,0
9422.0,1.1439395460226254,0
9432.0,1.0985388897621169,0
9442.0,1.0638622073291968,0
9452.0,1.04444387736051,0
9462.0,1.0388536512517315,0
9472.0,1.0403707496830485,0
9482.0,1.040071188113879,0
9492.0,1.030529056474623,0
9502.0,1.008443374586872,0
9512.0,0.9754766154139409,0
9522.0,0.9373742425458171,0
9532.0,0.9178356285176221,0
9542.0,0.9135581287161922,0
9552.0,0.9224316232647983,0
9562.0,0.9420719133698041,0
9572.0,0.9660472734603216,0
9582.0,0.9856106713687494,0
9592.0,0.9960327050694402,0
9602.0,0.9974839978961467,0
9612.0,0.9829518828618484,0
9622.0,0.9593914642770861,0
9632.0,0.9326647619407101,0
9642.0,0.8982496972212957,0
9652.0,0.8567051221827977,0
9662.0,0.8092639716646715,0
9672.0,0.7587005428127651,0
9682.0,0.7097007016321165,0
9692.0,0.6795297784918377,0
9702.0,0.6813440705389866,0
9712.0,0.6874934412313574,0
9722.0,0.6974924994476706,0
9732.0,0.7104676063783866,0
9742.0,0.7393916989505591,0
9752.0,0.7697793650493507,0
9762.0,0.7983991033230124,0
9772.0,0.8227359227297794,0
9782.0,0.841438165778674,0
9792.0,0.8547265216333568,0
9802.0,0.8646584858310986,0
9812.0,0.875137300161237,0
9822.0,0.8914578038547668,0
9832.0,0.9192204046221257,0
9842.0,0.9628365132559882,0
9852.0,1.0243743896738091,0
9862.0,1.1033466558022298,0
9872.0,1.197178436049859,0
9882.0,1.3017557190752602,0
9892.0,1.420520858666962,0
9902.0,1.5257251499182014,0
9912.0,1.6211465861767027,0
9922.0,1.7093951975677362,0
9932.0,1.781322892897034,0
9942.0,1.8357343280269935,0
9952.0,1.873425901813871,0
9962.0,1.896540404953479,0
9972.0,1.9079044077347347,0
9982.0,1.9105736103123654,0
9992.0,1.9075877875636031,0
10002.0,1.9018134661326351,0
10012.0,1.895783797600814,0
10022.0,1.8915463322656905,0
10032.0,1.8905832138704912,0
10042.0,1.8938274146514134,0
10052.0,1.9017172962188085,0
10062.0,1.9141989256664562,0
10072.0,1.931752916312686,0
10082.0,1.9524059290627962,0
10092.0,1.972958879166355,0
10102.0,1.9897741642813476,0
10112.0,1.998418151912908,0
10122.0,1.9949857219000124,0
10132.0,1.9805083631978855,0
10142.0,1.9488666455056616,0
10152.0,1.897786583777897,0
10162.0,1.8260203138592885,0
10172.0,1.7336729261210444,0
10182.0,1.6227633236339387,0
10192.0,1.4979436351001065,0
10202.0,1.3670023273398695,0
10212.0,1.2405178764328255,0
10222.0,1.1301103599521296,0
10232.0,1.0475896557412812,0
10242.0,1.0042562508943915,0
10252.0,0.9790214701755515,0
10262.0,0.9705003780701136,0
10272.0,0.9893901831113989,0
10282.0,1.0169141109725062,0
10292.0,1.045958160802111,0
10302.0,1.0713518750285882,0
10312.0,1.089764401305878,0
10322.0,1.0992129814613643,0
10332.0,1.0984676676878824,0
10342.0,1.0865995395422658,0
10352.0,1.0628979182093956,0
10362.0,1.0272462702723337,0
10372.0,0.9808133545489484,0
10382.0,0.9267239930241298,0
10392.0,0.8703121785284955,0
10402.0,0.8186161899161881,0
10412.0,0.778950882868882,0
10422.0,0.7579950517100802,0
10432.0,0.7653695060026005,0
10442.0,0.7817638911481013,0
10452.0,0.8027821715743941,0
10462.0,0.8240722705380383,0
10472.0,0.8422639999842843,0
10482.0,0.8605517487070826,0
10492.0,0.871186161270969,0
10502.0,0.8866898682872097,0
10512.0,0.8952902857705548,0
10522.0,0.8971388884163707,0
10532.0,0.8923433316241507,0
10542.0,0.8810040618994401,0
10552.0,0.8635261514978366,0
10562.0,0.8543698222471368,0
10572.0,0.8446239022455128,0
10582.0,0.827752772776827,0
10592.0,0.812292299416705,0
10602.0,0.7995016178986813,0
10612.0,0.7892912333051606,0
10622.0,0.7878020166607056,0
10632.0,0.7910361157523496,0
10642.0,0.8020638655878681,0
10652.0,0.8238544647709991,0
10662.0,0.8572155603342622,0
10672.0,0.8994782215803362,0
10682.0,0.9447984762024807,0
10692.0,0.9856536669162577,0
10702.0,1.014602248552369,0
10712.0,1.0257939790712867,0
10722.0,1.0299336117613058,0
10732.0,1.020786534195884,0
10742.0,0.9989770297288108,0
10752.0,0.9718899173567488,0
10762.0,0.9496758180971201,0
10772.0,0.9431992214438771,0
10782.0,0.9611561079624413,0
10792.0,1.0077292776086133,0
10802.0,1.0821738536255654,0
10812.0,1.1800656967503325,0
10822.0,1.2947449518307952,0
10832.0,1.4181604467068294,0
10842.0,1.5414716846576817,0
10852.0,1.6558884569996255,0
10862.0,1.7536918557765444,0
10872.0,1.8291350814025256,0
10882.0,1.8790518743624176,0
10892.0,1.903190593901111,0
10902.0,1.9044048862390166,0
10912.0,1.888828510920515,0
10922.0,1.8659768688360274,0
10932.0,1.8535611125265405,0
10942.0,1.8694359780493732,0
10952.0,1.9015039909512217,0
10962.0,1.9527401476074366,0
10972.0,2.034734913226668,0
10982.0,2.1477398514596273,1
10992.0,2.268506509979086,1
11002.0,2.3839400083766353,1
11012.0,2.4829769867328975,1
11022.0,2.558581927351913,1
11032.0,2.6086168061849135,1
11042.0,2.6353106845210426,1
11052.0,2.643524447266079,1
11062.0,2.638427375444552,1
11072.0,2.623438179940607,1
11082.0,2.599201025454009,1
11092.0,2.563904860892455,1
11102.0,2.51463731839561,1
11112.0,2.449100146596964,1
11122.0,2.367046895376442,1
11132.0,2.2710425929609195,1
11142.0,2.166396604282788,1
11152.0,2.0603482031174525,1
11162.0,1.9607912932162779,1
11172.0,1.8749399036907248,1
11182.0,1.8082648750363628,1
11192.0,1.7637951536822079,1
11202.0,1.7416580745955934,1
11212.0,1.7387201308788405,1
11222.0,1.7483768735006087,1
11232.0,1.760743540789056,1
11242.0,1.763533520336365,1
11252.0,1.7437304104078608,1
11262.0,1.6898714460940645,1
11272.0,1.5945327920843868,1
11282.0,1.4565125508891446,1
11292.0,1.2822053666075814,1
11302.0,1.0856977392700542,0
11312.0,0.9317191853547419,0
11322.0,0.8138735801144696,0
11332.0,0.7631582810293948,0
11342.0,0.730332361003093,0
11352.0,0.7020061401579819,0
11362.0,0.6745271907604934,0
11372.0,0.6466804700811251,0
11382.0,0.6205288444733734,0
11392.0,0.6005299403343171,0
11402.0,0.5911505167253207,0
11412.0,0.594565119048581,0
11422.0,0.6102052827450778,0
11432.0,0.6363300146551325,0
11442.0,0.6720133757401621,0
11452.0,0.7258567906273177,0
11462.0,0.8030221369114454,0
11472.0,0.9136586535826481,0
11482.0,1.0289601293230792,0
11492.0,1.136158403343104,0
11502.0,1.2237272630008944,0
11512.0,1.2839624582986922,0
11522.0,1.314816519052882,0
11532.0,1.325437237323658,0
11542.0,1.325807891190343,0
11552.0,1.319558538620552,0
11562.0,1.3172180369184314,0
11572.0,1.3244815310938127,0
11582.0,1.3414883068319554,0
11592.0,1.3644832300094252,0
11602.0,1.3914096404885394,0
11612.0,1.4165287753784754,0
11622.0,1.4334119491783284,0
11632.0,1.4447603466603514,0
11642.0,1.4576072275468617,0
11652.0,1.4669858569850844,0
11662.0,1.4743784524304333,0
11672.0,1.4800759272879374,0
11682.0,1.483704180247517,0
11692.0,1.4849268992659206,0
11702.0,1.4837184184183418,0
11712.0,1.479854633280331,0
11722.0,1.4718153840366957,0
11732.0,1.4558529809341496,0
11742.0,1.4261128593396095,0
11752.0,1.3761869973137084,0
11762.0,1.3016987189319034,0
11772.0,1.2030136254510766,0
11782.0,1.0871288183051535,0
11792.0,0.9680588576410889,0
11802.0,0.8653573098621514,0
11812.0,0.8002186717435391,0
11822.0,0.7880710552483813,0
11832.0,0.829402165083241,0
11842.0,0.9071655153235318,0
11852.0,0.9957704828298488,0
11862.0,1.0728176049339937,0
11872.0,1.1246201555659465,0
11882.0,1.1463277190954655,0
11892.0,1.1443981796404632,0
11902.0,1.1397845383366576,0
11912.0,1.1285017759129172,0
11922.0,1.1256523139119976,0
11932.0,1.1442205426990961,0
11942.0,1.1959976945164108,0
11952.0,1.2644033005671949,0
11962.0,1.3544118343826779,0
11972.0,1.4474213821754947,0
11982.0,1.5300888145513278,0
11992.0,1.5926090035159377,0
12002.0,1.630581222408201,0
12012.0,1.6456473775381928,0
12022.0,1.6449726055675866,0
12032.0,1.639587337168491,0
12042.0,1.641556272482291,0
12052.0,1.660206792215361,0
12062.0,1.698538972631623,0
12072.0,1.7517845868689057,0
12082.0,1.8092924660733,0
12092.0,1.8586100774762693,0
12102.0,1.889416950584017,0
12112.0,1.8958643422785924,0
12122.0,1.8772188504674259,0
12132.0,1.8373197613373782,0
12142.0,1.7833936493115656,0
12152.0,1.724599536001425,0
12162.0,1.6712067058691622,0
12172.0,1.639663784932266,0
12182.0,1.6461679207795343,0
12192.0,1.6618609215888323,0
12202.0,1.6831988567703946,0
12212.0,1.703702134087128,0
12222.0,1.7154288501703008,0
12232.0,1.7113296671193003,0
12242.0,1.6939060920101663,0
12252.0,1.6632394478729233,0
12262.0,1.611765910586158,0
12272.0,1.548079386997148,0
12282.0,1.5401960985521082,0
12292.0,1.5414037372498084,0
12302.0,1.5531990138668013,0
12312.0,1.5744706206883894,0
12322.0,1.5994552112020997,0
12332.0,1.6193149285807755,0
12342.0,1.6250970984021982,0
12352.0,1.6104917770639218,0
12362.0,1.5734838169219236,0
12372.0,1.516758447253936,0
12382.0,1.4471373573311561,0
12392.0,1.3743553699558568,0
12402.0,1.3091077135125624,0
12412.0,1.2764002398078818,0
12422.0,1.2578639503895817,0
12432.0,1.240092916663369,0
12442.0,1.2170534496388246,0
12452.0,1.202090316593856,0
12462.0,1.1806266382328208,0
12472.0,1.1470532007675265,0
12482.0,1.1142052107667477,0
12492.0,1.0652624613038455,0
12502.0,1.0061845862997074,0
12512.0,0.9459215165874658,0
12522.0,0.9117818944651135,0
12532.0,0.8960021960932322,0
12542.0,0.8952777043081309,0
12552.0,0.9160237602924024,0
12562.0,0.9531419643646877,0
12572.0,1.0092217761764077,0
12582.0,1.0674757941032729,0
12592.0,1.1147327945482162,0
12602.0,1.151196397344305,0
12612.0,1.180009424799854,0
12622.0,1.2052199642289796,0
12632.0,1.229632985936378,0
12642.0,1.2533521125691354,0
12652.0,1.293836358583645,0
12662.0,1.3269102069792227,0
12672.0,1.342961672354052,0
12682.0,1.3421638492753905,0
12692.0,1.3280559420047338,0
12702.0,1.3073051020275477,0
12712.0,1.2885420689577107,0
12722.0,1.2803238808778,0
12732.0,1.288769313679959,0
12742.0,1.316053660861263,0
12752.0,1.3605705323170767,0
12762.0,1.4182364459309178,0
12772.0,1.4838135072698058,0
12782.0,1.5515961474830924,0
12792.0,1.6155420365650013,0
12802.0,1.6694369037945185,0
12812.0,1.7075609722799445,0
12822.0,1.7256831776071642,0
12832.0,1.721837826100301,0
12842.0,1.6965770122135644,0
12852.0,1.652820076518664,0
12862.0,1.5955773348220776,0
12872.0,1.545592444653758,0
12882.0,1.5235536801949197,0
12892.0,1.4928090219082368,0
12902.0,1.4546992600573971,0
12912.0,1.4119874064381652,0
12922.0,1.3683883470942928,0
12932.0,1.3279099876381808,0
12942.0,1.2942044357981248,0
12952.0,1.2700525437684649,0
12962.0,1.256999003092475,0
12972.0,1.2550859751578365,0
12982.0,1.2626614278554253,0
12992.0,1.2763400268816687,0
13002.0,1.2912600635404896,0
13012.0,1.3017110866602133,0
13022.0,1.3020315027665648,0
13032.0,1.287538503155043,0
13042.0,1.2552569799588613,0
13052.0,1.2268912863081338,0
13062.0,1.1903612489019748,0
13072.0,1.1443378997987534,0
13082.0,1.14093308476043,0
13092.0,1.1400801750165885,0
13102.0,1.1278947858363162,0
13112.0,1.107285101666001,0
13122.0,1.0844283883149677,0
13132.0,1.0672737770564131,0
13142.0,1.0632839653747503,0
13152.0,1.109869468165083,0
13162.0,1.1874586979561137,0
13172.0,1.2743826718709477,0
13182.0,1.3652140250217841,0
13192.0,1.4440445972554137,0
13202.0,1.5140152863310883,0
13212.0,1.5620198887820416,0
13222.0,1.5859636251297033,0
13232.0,1.5884275523516385,0
13242.0,1.57415036233478,0
13252.0,1.549373301787861,0
13262.0,1.5220788346130778,0
13272.0,1.506276002571302,0
13282.0,1.504857362159158,0
13292.0,1.516674008066655,0
13302.0,1.5400899008683906,0
13312.0,1.5706422600738474,0
13322.0,1.6113457515639804,0
13332.0,1.6465319035465096,0
13342.0,1.6677559290728872,0
13352.0,1.6729092678950552,0
13362.0,1.6651715337745565,0
13372.0,1.6523771828901301,0
13382.0,1.6444708332520852,0
13392.0,1.6601048721872622,0
13402.0,1.6918651523804091,0
13412.0,1.731088796017708,0
13422.0,1.7649596260858793,0
13432.0,1.7791968725190892,0
13442.0,1.7624244587121853,0
13452.0,1.7092139337501995,0
13462.0,1.6213085092837076,0
13472.0,1.5071514500054204,0
13482.0,1.380062524916139,0
13492.0,1.2554746665449976,0
13502.0,1.1614984212515256,0
13512.0,1.1047338324964455,0
13522.0,1.0741165749703616,0
13532.0,1.0654408830647744,0
13542.0,1.070604090871715,0
13552.0,1.080311586916117,0
13562.0,1.0861068279593131,0
13572.0,1.0814950177313756,0
13582.0,1.0625614662423335,0
13592.0,1.0285380894593938,0
13602.0,0.9825094312560314,0
13612.0,0.9428199122977463,0
13622.0,0.9236507378593772,0
13632.0,0.9200730193277933,0
13642.0,0.9390895883616084,0
13652.0,0.9814690988630237,0
13662.0,1.040172985856314,0
13672.0,1.1220654272417354,0
13682.0,1.2095561386481266,0
13692.0,1.290418560606605,0
13702.0,1.3550197955928376,0
13712.0,1.3731868752084424,0
13722.0,1.3501605917917132,0
13732.0,1.30295613413487,0
13742.0,1.2589667938720654,0
13752.0,1.2498728673073718,0
13762.0,1.299733757598719,0
13772.0,1.413086473532302,0
13782.0,1.5732784945143596,0
13792.0,1.751816111621279,0
13802.0,1.9199191861659084,0
13812.0,2.0561560147889084,0
13822.0,2.149661158259949,1
13832.0,2.2003674555305732,1
13842.0,2.217328647943519,1
13852.0,2.215621950319977,1
13862.0,2.212147908950648,1
13872.0,2.220935877455732,1
13882.0,2.249164753837182,1
13892.0,2.295411166804562,1
13902.0,2.350862930832461,1
13912.0,2.402706626816054,1
13922.0,2.4380558521011357,1
13932.0,2.4472243267902627,1
13942.0,2.4260115171067373,1
13952.0,2.3770945498289637,1
13962.0,2.3105015735954617,1
13972.0,2.242767921643688,1
13982.0,2.194133790079965,1
13992.0,2.183488976383334,1
14002.0,2.221991420356962,1
14012.0,2.307950459637863,1
14022.0,2.4261412373782116,1
14032.0,2.552457397914464,1
14042.0,2.661142389301169,1
14052.0,2.730965090747035,1
14062.0,2.7488650676078903,1
14072.0,2.7114675173425034,1
14082.0,2.6251710944354896,1
14092.0,2.505027434051934,1
14102.0,2.3721222518370806,1
14112.0,2.2490754631892713,1
14122.0,2.1540814835651734,1
14132.0,2.095605537951955,1
14142.0,2.0731655248587453,1
14152.0,2.0945470501083028,1
14162.0,2.135288995665104,1
14172.0,2.1898745568980384,1
14182.0,2.241691219696203,1
14192.0,2.27085832919131,1
14202.0,2.2759192903222636,1
14212.0,2.26246233360401,1
14222.0,2.240948047271648,1
14232.0,2.223342199283019,1
14242.0,2.219175632361082,1
14252.0,2.232374979216054,1
14262.0,2.260222284913925,1
14272.0,2.2948281932837165,1
14282.0,2.3263978508392507,1
14292.0,2.3470009280044475,1
14302.0,2.3534748529351806,1
14312.0,2.3483566341112048,1
14322.0,2.3383743688721914,1
14332.0,2.3673688218579425,1
14342.0,2.4400568540433936,1
14352.0,2.526932443879858,1
14362.0,2.6318392662765966,1
14372.0,2.707953108507024,1
14382.0,2.7525473182126943,1
14392.0,2.769790449568954,1
14402.0,2.769315548279195,1
14412.0,2.76309739620417,1
14422.0,2.761377337922947,1
14432.0,2.7689782003393866,1
14442.0,2.78355611091422,1
14452.0,2.7966482651915254,1
14462.0,2.7970712627142023,1
14472.0,2.775241606093884,1
14482.0,2.726878507320304,1
14492.0,2.6636469294140435,1
14502.0,2.5979062952358065,1
14512.0,2.5334460946179984,1
14522.0,2.4948185017804714,1
14532.0,2.4648774533939695,1
14542.0,2.443408595461496,1
14552.0,2.42515064725345,1
14562.0,2.4016690319929364,1
14572.0,2.364114705149324,1
14582.0,2.305654761301006,1
14592.0,2.241018054205468,1
14602.0,2.1499100350553944,1
14612.0,2.0300968814029026,1
14622.0,1.8860943509476962,1
14632.0,1.7324991018548097,1
14642.0,1.588639473611415,1
14652.0,1.4520671627651678,1
14662.0,1.3392788402782483,1
14672.0,1.2710875894613411,0
14682.0,1.2466603278971742,0
14692.0,1.272461069351801,0
14702.0,1.3461731727033883,0
14712.0,1.455473596596172,0
14722.0,1.5825478195505993,0
14732.0,1.7102351769240207,0
14742.0,1.8252325437230361,0
14752.0,1.912231872712388,0
14762.0,1.9735761044052529,0
14772.0,2.007162723310427,0
14782.0,2.017743678482952,0
14792.0,2.01346018961158,0
14802.0,2.004163973245796,0
14812.0,1.9992240048013263,0
14822.0,2.005307237879291,0
14832.0,2.0248093553483466,0
14842.0,2.0555060203531483,0
14852.0,2.0915636354167355,0
14862.0,2.125494472897607,0
14872.0,2.150331343173858,1
14882.0,2.1613950791938876,1
14892.0,2.157351054419041,1
14902.0,2.140523261303414,1
14912.0,2.116528883641263,1
14922.0,2.09326725266736,1
14932.0,2.0792929543188334,1
14942.0,2.0817431426972686,1
14952.0,2.1250937099646396,1
14962.0,2.203319484245344,1
14972.0,2.2901295371733426,1
14982.0,2.3703498253726525,1
14992.0,2.4290784533565457,1
15002.0,2.4542572916147445,1
15012.0,2.4384413094611124,1
15022.0,2.3799846032702603,1
15032.0,2.283739872499563,1
15042.0,2.161082925853164,1
15052.0,2.0288038663034507,1
15062.0,1.906270944651024,1
15072.0,1.8270521621338802,1
15082.0,1.7851296213406358,1
15092.0,1.76552420883931,1
15102.0,1.761234864500905,1
15112.0,1.7619078181256491,1
15122.0,1.7586071609573701,1
15132.0,1.7466712750557867,1
15142.0,1.7263008185049131,1
15152.0,1.70154281526111,1
15162.0,1.678333461163901,1
15172.0,1.6621035937286086,1
15182.0,1.6555551057501747,1
15192.0,1.6573835578409026,1
15202.0,1.6624039543433415,1
15212.0,1.662801532323467,1
15222.0,1.6498686295832647,1
15232.0,1.6157947681655385,1
15242.0,1.5552926877032005,1
15252.0,1.4798976985725385,1
15262.0,1.3914175434899863,1
15272.0,1.3057388163765005,1
15282.0,1.2382720768387945,0
15292.0,1.179878865325728,0
15302.0,1.1259002959648288,0
15312.0,1.0765420277368358,0
15322.0,1.0296351568810602,0
15332.0,0.9819959851149531,0
15342.0,0.9312272844024844,0
15352.0,0.8776508752402423,0
15362.0,0.8254886823529493,0
15372.0,0.7819569247496994,0
15382.0,0.7537601055434273,0
15392.0,0.7424036891282905,0
15402.0,0.7513120956550219,0
15412.0,0.7565749085478984,0
15422.0,0.7442389760179984,0
15432.0,0.7233377304077866,0
15442.0,0.7104713845142493,0
15452.0,0.6773485043263106,0
15462.0,0.6726260884164221,0
15472.0,0.6903957765542813,0
15482.0,0.7275315010770327,0
15492.0,0.760257742960228,0
15502.0,0.7876813436808123,0
15512.0,0.8086148441305158,0
15522.0,0.8227402745036019,0
15532.0,0.8491072654013411,0
15542.0,0.8712832659720785,0
15552.0,0.8851328326309058,0
15562.0,0.8926057106836066,0
15572.0,0.8971271482213259,0
15582.0,0.9053013599818336,0
15592.0,0.9086686164502795,0
15602.0,0.9088239949654673,0
15612.0,0.907677560083505,0
15622.0,0.9067235183136728,0
15632.0,0.9064172925983418,0
15642.0,0.9060656026450264,0
15652.0,0.9043291833613205,0
15662.0,0.900028451551685,0
15672.0,0.8927648520634159,0
15682.0,0.8830593543619873,0
15692.0,0.8720655010115923,0
15702.0,0.8772811337336417,0
15712.0,0.8895126053363155,0
15722.0,0.8964868797150565,0
15732.0,0.896056909282702,0
15742.0,0.8876765201214092,0
15752.0,0.8721104938975528,0
15762.0,0.8505308311353218,0
15772.0,0.8235512848602043,0
15782.0,0.7907809458706466,0
15792.0,0.7585468815272987,0
15802.0,0.7472776205473001,0
15812.0,0.7381001019759431,0
15822.0,0.7215354484721772,0
15832.0,0.6993447355040519,0
15842.0,0.6743604118188516,0
15852.0,0.6722346998338472,0
15862.0,0.6733713217256793,0
15872.0,0.6759518424336333,0
15882.0,0.6893847414739719,0
15892.0,0.7060857215050874,0
15902.0,0.7250105331191348,0
15912.0,0.7474909085927441,0
15922.0,0.7750997092097329,0
15932.0,0.8087553060008166,0
15942.0,0.8529236875184265,0
15952.0,0.9201765975332082,0
15962.0,0.9888396727305221,0
15972.0,1.0524458293864072,0
15982.0,1.105862303942994,0
15992.0,1.1464555521060897,0
16002.0,1.1744468860914155,0
16012.0,1.1921761517664526,0
16022.0,1.2024704719283226,0
16032.0,1.2069595061584795,0
16042.0,1.20535219949027,0
16052.0,1.196120638440062,0
16062.0,1.1783170519019728,0
16072.0,1.1539443033054522,0
16082.0,1.1301836776088123,0
16092.0,1.120300609848229,0
16102.0,1.141182766642103,0
16112.0,1.2382306539619514,0
16122.0,1.4078693986814432,0
16132.0,1.6234713868522226,0
16142.0,1.8566142255182312,0
16152.0,2.115145396155887,0
16162.0,2.370286790713304,1
16172.0,2.5743363179329153,1
16182.0,2.720561357645217,1
16192.0,2.812135638940921,1
16202.0,2.8589616972978824,1
16212.0,2.873663266488584,1
16222.0,2.867844957512803,1
16232.0,2.849772141335482,1
16242.0,2.824056291445612,1
16252.0,2.7929314344944856,1
16262.0,2.7579631865067444,1
16272.0,2.7210964639192703,1
16282.0,2.684693703757771,1
16292.0,2.651030517317365,1
16302.0,2.622044235860164,1
16312.0,2.5997987278894006,1
16322.0,2.5874237038540486,1
16332.0,2.5897675927546877,1
16342.0,2.6130181710201112,1
16352.0,2.662939620576876,1
16362.0,2.7418866424149586,1
16372.0,2.8454809614900367,1
16382.0,2.9606742110032567,1
16392.0,3.0668835900637283,1
16402.0,3.1403226261696324,1
16412.0,3.1598531892590183,1
16422.0,3.1122756127427396,1
16432.0,2.9957111743398626,1
16442.0,2.820534171878907,1
16452.0,2.6077719109850763,1
16462.0,2.385133171594914,1
16472.0,2.1810261561832007,1
16482.0,2.027916751617716,1
16492.0,1.943993414733889,1
16502.0,1.893613390614474,1
16512.0,1.8728238856574508,1
16522.0,1.8790360254218321,1
16532.0,1.9124849976917533,1
16542.0,1.9737118324071758,1
16552.0,2.0600866719065243,1
16562.0,2.1645897214017245,1
16572.0,2.2871998574797328,1
16582.0,2.426759561936115,1
16592.0,2.5566251810673593,1
16602.0,2.6686934849521347,1
16612.0,2.758258319919212,1
16622.0,2.8228155678508458,1
16632.0,2.8604293960384277,1
16642.0,2.868841231164841,1
16652.0,2.845976925185852,1
16662.0,2.79159452244063,1
16672.0,2.709092074924311,1
16682.0,2.606365954263483,1
16692.0,2.495084439911526,1
16702.0,2.388521373808212,1
16712.0,2.298705872815182,1
16722.0,2.2597604182796345,1
16732.0,2.2449281845922586,1
16742.0,2.2445695095951885,1
16752.0,2.251037411655659,1
16762.0,2.2574412570043263,1
16772.0,2.259978319811079,1
16782.0,2.2634610602569696,1
16792.0,2.282447918008606,1
16802.0,2.301386650162435,1
16812.0,2.3143856931669404,1
16822.0,2.312554627025019,1
16832.0,2.286066083043126,1
16842.0,2.2268959363449854,1
16852.0,2.1638577516289175,1
16862.0,2.0923275756159074,1
16872.0,1.9974668851015407,1
16882.0,1.884642023577518,1
16892.0,1.7633601305413507,1
16902.0,1.6453640795299163,1
16912.0,1.5415594016630387,1
16922.0,1.463643266409499,1
16932.0,1.4119031272985199,1
16942.0,1.3755612381292153,1
16952.0,1.363541064560151,1
16962.0,1.3796286166596246,1
16972.0,1.4110784156052194,1
16982.0,1.4495469100493161,1
16992.0,1.4960166967368087,1
17002.0,1.5413008512415822,1
17012.0,1.5633886291533825,1
17022.0,1.5651991330748072,1
17032.0,1.5535777751440238,1
17042.0,1.536543128959198,1
17052.0,1.5201896230932102,1
17062.0,1.50663778285857,1
17072.0,1.494165868263225,1
17082.0,1.5275686495042726,1
17092.0,1.5621995812129499,1
17102.0,1.5871688498269494,1
17112.0,1.6009069754937115,1
17122.0,1.6049183376246074,1
17132.0,1.6023993572324087,1
17142.0,1.5967267155803997,1
17152.0,1.5903784226624225,1
17162.0,1.5844772329426369,1
17172.0,1.578778027982524,1
17182.0,1.571799513667537,1
17192.0,1.5609862318601988,1
17202.0,1.5430823813495995,1
17212.0,1.5150383287909204,1
17222.0,1.4756466500040317,1
17232.0,1.4277716477996143,1
17242.0,1.380429232505294,1
17252.0,1.3487151494028478,1
17262.0,1.348622828635814,1
17272.0,1.3883123586216013,1
17282.0,1.465044489646949,1
17292.0,1.570029288418215,1
17302.0,1.7559028829152972,1
17312.0,1.9436212928680336,1
17322.0,2.1097813847528615,1
17332.0,2.245532735275278,1
17342.0,2.358735380754998,1
17352.0,2.429153237429719,1
17362.0,2.4661247807459103,1
17372.0,2.481556285348307,1
17382.0,2.4864012784712193,1
17392.0,2.488178696305507,1
17402.0,2.4904801915090373,1
17412.0,2.494418361613981,1
17422.0,2.500841750888815,1
17432.0,2.51171594945205,1
17442.0,2.529687174651195,1
17452.0,2.556200309349498,1
17462.0,2.5897873641832287,1
17472.0,2.6262132151408633,1
17482.0,2.660867675018914,1
17492.0,2.692278065667673,1
17502.0,2.7249720400173123,1
17512.0,2.770121299751687,1
17522.0,2.8430685725930145,1
17532.0,2.95802470812062,1
17542.0,3.124507005651462,1
17552.0,3.444388967536388,1
17562.0,3.8059962842184367,1
17572.0,4.175647020640849,1
17582.0,4.520143922347495,1
17592.0,4.8123272154531485,1
17602.0,5.0345846704713,1
17612.0,5.180502744123979,1
17622.0,5.254793970679232,1
17632.0,5.271647026329887,1
17642.0,5.251754770917852,1
17652.0,5.218414032950648,1
17662.0,5.193229892522654,1
17672.0,5.192123961890289,1
17682.0,5.222517814580344,1
17692.0,5.282544299527125,1
17702.0,5.362667779563103,1
17712.0,5.4492271022933005,1
17722.0,5.528675760502545,1
17732.0,5.591156932029475,1
17742.0,5.632467240122159,1
17752.0,5.654080265945853,1
17762.0,5.6614667658353115,1
17772.0,5.661362571865338,1
17782.0,5.658835590452084,1
17792.0,5.654942067195502,1
17802.0,5.645464317886162,1
17812.0,5.620839026760757,1
17822.0,5.567134793312047,1
17832.0,5.467908152460131,1
17842.0,5.30682116050987,1
17852.0,5.07085987794729,1
17862.0,4.753840955173198,1
17872.0,4.359762399512198,1
17882.0,3.9055388592953153,1
17892.0,3.422673221751425,1
17902.0,2.9570311370585296,1
17912.0,2.6077210372097546,1
17922.0,2.430437315709515,1
17932.0,2.3858814002184827,1
17942.0,2.4279713270902437,1
17952.0,2.5153700333061044,1
17962.0,2.6036856292850223,1
17972.0,2.65807450534133,1
17982.0,2.6571212857037065,1
17992.0,2.592682066961765,1
18002.0,2.4686903003663954,1
18012.0,2.3105185325691693,1
18022.0,2.153535400499265,1
18032.0,2.01044494683701,1
18042.0,1.899266966485095,1
18052.0,1.8555486328528707,1
18062.0,1.8740816963998033,1
18072.0,1.9039111352477316,1
18082.0,1.9447951446107745,1
18092.0,1.993460787236243,1
18102.0,2.0132882785456285,1
18112.0,2.009610355731261,1
18122.0,1.9913736646754616,1
18132.0,1.967734894212958,1
18142.0,1.9458018757554365,1
18152.0,1.929985731113494,1
18162.0,1.922813810878019,1
18172.0,1.9261150896943873,1
18182.0,1.9411980366921773,1
18192.0,1.9677144356002019,1
18202.0,2.002315670427294,1
18212.0,2.048939753081147,1
18222.0,2.0938292532284426,1
18232.0,2.111262901891605,1
18242.0,2.1363464913575267,1
18252.0,2.141601971166133,1
18262.0,2.13192182118534,1
18272.0,2.1166901742846322,1
18282.0,2.1203439013846612,1
18292.0,2.1295829744768913,1
18302.0,2.1413211132508967,1
18312.0,2.1490642568796483,1
18322.0,2.14406349145602,1
18332.0,2.1192622362591935,1
18342.0,2.072457005382719,1
18352.0,2.0076846659271634,1
18362.0,1.9808494575566986,1
18372.0,1.9709929122204857,1
18382.0,1.980366624211746,1
18392.0,2.029952266745556,1
18402.0,2.0861075493440047,1
18412.0,2.141457099039658,1
18422.0,2.1885095135435595,1
18432.0,2.222982307540505,1
18442.0,2.262749329401207,1
18452.0,2.283930514760743,1
18462.0,2.2837935762117008,1
18472.0,2.2607331862642344,1
18482.0,2.213728075437235,1
18492.0,2.1424407125368155,1
18502.0,2.048003879365953,1
18512.0,1.9341791876335153,1
18522.0,1.8082622455381028,1
18532.0,1.6809631164546364,1
18542.0,1.5646586299269052,1
18552.0,1.470094617239262,1
18562.0,1.4032605016720474,1
18572.0,1.3612597657852894,1
18582.0,1.338250826011486,1
18592.0,1.3242192814511098,1
18602.0,1.3107517879407764,1
18612.0,1.2925900801594365,1
18622.0,1.2681036888326789,0
18632.0,1.2437173861753386,0
18642.0,1.22922213310494,0
18652.0,1.2051268689846732,0
18662.0,1.1688620894554678,0
18672.0,1.1313494790832967,0
18682.0,1.092670324397784,0
18692.0,1.0589123200472355,0
18702.0,1.0124364616937362,0
18712.0,0.9523179351462103,0
18722.0,0.8805403720757404,0
18732.0,0.8016325266718867,0
18742.0,0.7217106846269077,0
18752.0,0.6472845150134452,0
18762.0,0.5842441278184771,0
18772.0,0.5698191821221879,0
18782.0,0.6027544629262556,0
18792.0,0.657375928873082,0
18802.0,0.7217877336830185,0
18812.0,0.7889807636320586,0
18822.0,0.8508215928485512,0
18832.0,0.9126112625143523,0
18842.0,0.9672612454335332,0
18852.0,0.9969587186649583,0
18862.0,1.0031004471976923,0
18872.0,0.9914090510011839,0
18882.0,0.9708590635045579,0
18892.0,0.9516691480275012,0
18902.0,0.9618996221881466,0
18912.0,1.0033612475591684,0
18922.0,1.0547463262683445,0
18932.0,1.1089584356649556,0
18942.0,1.1583905848640834,0
18952.0,1.197014237562334,0
18962.0,1.2216356611437873,0
18972.0,1.2321507401975933,0
18982.0,1.2388330279661233,0
18992.0,1.2421288827731887,0
19002.0,1.2417599604328866,0
19012.0,1.2397607827690158,0
19022.0,1.236722802949234,0
19032.0,1.2317231188281799,0
19042.0,1.222541563313968,0
19052.0,1.206097736928827,0
19062.0,1.1790385609989296,0
19072.0,1.1384299061193843,0
19082.0,1.0825289683134836,0
19092.0,1.0115928378701198,0
19102.0,0.9285852926426261,0
19112.0,0.8524939223149008,0
19122.0,0.8078013533080493,0
19132.0,0.7869971529504594,0
19142.0,0.7936401391728984,0
19152.0,0.8236398538080322,0
19162.0,0.8657193377101291,0
19172.0,0.9043534446577733,0
19182.0,0.9243783833452744,0
19192.0,0.915492806024317,0
19202.0,0.8753048039225115,0
19212.0,0.8105586244774423,0
19222.0,0.7363330482113122,0
19232.0,0.6725239638794862,0
19242.0,0.6371742924640369,0
19252.0,0.6390628590764553,0
19262.0,0.6750861424665392,0
19272.0,0.7340223193613976,0
19282.0,0.8020647593018938,0
19292.0,0.8670698953094476,0
19302.0,0.9213325719036597,0
19312.0,0.9623909402491517,0
19322.0,0.9916626333386407,0
19332.0,1.0120858755042255,0
19342.0,1.0263099471969932,0
19352.0,1.036024052806477,0
19362.0,1.0422014550861174,0
19372.0,1.0458653163181735,0
19382.0,1.0487595853752996,0
19392.0,1.0530820599822004,0
19402.0,1.0599538714654548,0
19412.0,1.0676798886898267,0
19422.0,1.0716179806235777,0
19432.0,1.0661712405687127,0
19442.0,1.048803723139733,0
19452.0,1.0250157233865842,0
19462.0,0.9926831339284576,0
19472.0,0.9592264912853601,0
19482.0,0.9316544614290081,0
19492.0,0.9136392444453842,0
19502.0,0.9043203596548613,0
19512.0,0.899380855714909,0
19522.0,0.8932718495977161,0
19532.0,0.8825495574947693,0
19542.0,0.8675891430094107,0
19552.0,0.8435485027923328,0
19562.0,0.8116410322503371,0
19572.0,0.7739536492581239,0
19582.0,0.7328339264334847,0
19592.0,0.6907013215080322,0
19602.0,0.650134828484273,0
19612.0,0.6424296459352339,0
19622.0,0.6470080838147325,0
19632.0,0.6460116411392962,0
19642.0,0.6391308461945187,0
19652.0,0.6288143608725065,0
19662.0,0.6184076684491234,0
19672.0,0.6092171625897844,0
19682.0,0.5992193526262161,0
19692.0,0.5843703449039989,0
19702.0,0.560958887259615,0
19712.0,0.528034888720845,0
19722.0,0.5002564380703258,0
19732.0,0.46868075529855074,0
19742.0,0.4520081881110263,0
19752.0,0.4467288493363573,0
19762.0,0.44544230198738477,0
19772.0,0.4453349853188623,0
19782.0,0.4529762379174454,0
19792.0,0.4654585236956229,0
19802.0,0.48273713835899,0
19812.0,0.5034517051061176,0
19822.0,0.5244604551754021,0
19832.0,0.5417224792594406,0
19842.0,0.5591019031953086,0
19852.0,0.5679213441575566,0
19862.0,0.5659504339901016,0
19872.0,0.5567871679354983,0
19882.0,0.5451438960749466,0
19892.0,0.5354061983042304,0
19902.0,0.5304364650200031,0
19912.0,0.5309064486332375,0
19922.0,0.5353510666800849,0
19932.0,0.5410138573070951,0
19942.0,0.5451345404005071,0
19952.0,0.5459482222947912,0
19962.0,0.5429654440698317,0
19972.0,0.536701528604111,0
19982.0,0.5414446854115393,0
19992.0,0.5453692267720467,0
20002.0,0.543279277780505,0
20012.0,0.5370567023848837,0
20022.0,0.5294570884900117,0
20032.0,0.5232794442303231,0
20042.0,0.5204215407190553,0
20052.0,0.5211640122415894,0
20062.0,0.5239396384395735,0
20072.0,0.5257067246654938,0
20082.0,0.5246031856012743,0
20092.0,0.5237063447696579,0
20102.0,0.5158450219243785,0
20112.0,0.4981987759961601,0
20122.0,0.47094947646415247,0
20132.0,0.4349057387737021,0
20142.0,0.39063015240880233,0
20152.0,0.33827974225084106,0
20162.0,0.29188421287492594,0
20172.0,0.25124018723520225,0
20182.0,0.2306591143234223,0
20192.0,0.254898519506824,0
20202.0,0.29579187935531925,0
20212.0,0.3526339057802781,0
20222.0,0.419289125310645,0
20232.0,0.4862711942639839,0
20242.0,0.5745506607394778,0
20252.0,0.6764346485428736,0
20262.0,0.7729500660039166,0
20272.0,0.8337630910247169,0
20282.0,0.8621823519068846,0
20292.0,0.8667243380364953,0
20302.0,0.8590576449200199,0
20312.0,0.8511710666350063,0
20322.0,0.8521936464705837,0
20332.0,0.8660403808658725,0
20342.0,0.8911524671108436,0
20352.0,0.9225077569098373,0
20362.0,0.9546620366489271,0
20372.0,0.9841754497088733,0
20382.0,1.0104665869602412,0
20392.0,1.0350986648814582,0
20402.0,1.060200522715768,0
20412.0,1.0870224799679056,0
20422.0,1.1154167051997392,0
20432.0,1.1443368212686251,0
20442.0,1.1727058150688023,0
20452.0,1.1997819429999668,0
20462.0,1.2246130373005837,0
20472.0,1.2449501010269484,0
20482.0,1.2565332444566786,0
20492.0,1.253555662129215,0
20502.0,1.230402470910191,0
20512.0,1.1839687090667645,0
20522.0,1.115513731693083,0
20532.0,1.0312272014176496,0
20542.0,0.94123549484765,0
20552.0,0.857348096571952,0
20562.0,0.7901413560323264,0
20572.0,0.7460181636793065,0
20582.0,0.7252946264924873,0
20592.0,0.7227370328233315,0
20602.0,0.7302670626260794,0
20612.0,0.7396658133216585,0
20622.0,0.7440991782425902,0
20632.0,0.7388002459313859,0
20642.0,0.721394351883682,0
20652.0,0.6919809254700712,0
20662.0,0.6528868819192328,0
20672.0,0.6080128981227422,0
20682.0,0.5617936698370589,0
20692.0,0.5179349231694887,0
20702.0,0.4782570574813134,0
20712.0,0.44209681450137917,0
20722.0,0.42379672427479664,0
20732.0,0.41054662104418227,0
20742.0,0.3912131598835167,0
20752.0,0.3577634110899627,0
20762.0,0.31554620651118875,0
20772.0,0.29112692958021485,0
20782.0,0.29076385095467283,0
20792.0,0.35468689200279396,0
20802.0,0.44976704969369075,0
20812.0,0.5569008898108844,0
20822.0,0.663232196348632,0
20832.0,0.7421834843657216,0
20842.0,0.7904794000256121,0
20852.0,0.8037648577767422,0
20862.0,0.7894364354054664,0
20872.0,0.7667296072932002,0
20882.0,0.7572121622650074,0
20892.0,0.7762841213195626,0
20902.0,0.8266819048156645,0
20912.0,0.8994336355212477,0
20922.0,0.9806976601426074,0
20932.0,1.0581710749111801,0
20942.0,1.1239578656219733,0
20952.0,1.1745758047842818,0
20962.0,1.2096500444997607,0
20972.0,1.230401734075556,0
20982.0,1.2385300387063896,0
20992.0,1.2357366428724545,0
21002.0,1.223882677473461,0
21012.0,1.205519770367325,0
21022.0,1.1843087723298242,0
21032.0,1.164738201952599,0
21042.0,1.1507535596105183,0
21052.0,1.143570883479525,0
21062.0,1.1398635402480668,0
21072.0,1.1317723087674674,0
21082.0,1.1091652633960458,0
21092.0,1.0632163459471209,0
21102.0,0.9899327451344764,0
21112.0,0.9069709473591033,0
21122.0,0.8320534149484196,0
21132.0,0.7652042257501419,0
21142.0,0.7185754211594704,0
21152.0,0.696824998270231,0
21162.0,0.6939640713215366,0
21172.0,0.6964376213417264,0
21182.0,0.690362098140888,0
21192.0,0.668249978559819,0
21202.0,0.6324577011516899,0
21212.0,0.5945426487613035,0
21222.0,0.5700819088975284,0
21232.0,0.5697633967293555,0
21242.0,0.5918808351417129,0
21252.0,0.623198072615187,0
21262.0,0.6475507355430983,0
21272.0,0.6550246993527391,0
21282.0,0.647211916253573,0
21292.0,0.6376705834450723,0
21302.0,0.6470410503040344,0
21312.0,0.6928723878886538,0
21322.0,0.7791971938190269,0
21332.0,0.8946934114946545,0
21342.0,1.020275002714048,0
21352.0,1.1379605670356678,0
21362.0,1.2357226307075706,0
21372.0,1.3084892989199763,0
21382.0,1.3569089153449925,0
21392.0,1.3851479559858682,0
21402.0,1.3986599864823366,0
21412.0,1.402628583541225,0
21422.0,1.4014386859544772,0
21432.0,1.3990521840383963,0
21442.0,1.3997276574661865,0
21452.0,1.408334172322888,0
21462.0,1.4296829122143353,0
21472.0,1.4668562672944159,0
21482.0,1.5192720985348465,0
21492.0,1.581674801827777,0
21502.0,1.6449087168265382,0
21512.0,1.7084742271133435,0
21522.0,1.7580577618592756,0
21532.0,1.7849013797629352,0
21542.0,1.790175886304223,0
21552.0,1.7810438950523317,0
21562.0,1.767595086307013,0
21572.0,1.7582197262412915,0
21582.0,1.7556215800397807,0
21592.0,1.7558392878799185,0
21602.0,1.750918207091043,0
21612.0,1.7335346009516672,0
21622.0,1.7010207833133206,0
21632.0,1.657070411066007,0
21642.0,1.6264943876235518,0
21652.0,1.6369675699183528,0
21662.0,1.6678169722254605,0
21672.0,1.7179855163737896,0
21682.0,1.7816951873708864,0
21692.0,1.8505252884897765,0
21702.0,1.9159433356465407,0
21712.0,1.9712513588415916,0
21722.0,2.0124464590449467,0
21732.0,2.0380574262901905,0
21742.0,2.0483096498672824,0
21752.0,2.052137798710709,0
21762.0,2.046351110218171,0
21772.0,2.0277749902842706,0
21782.0,1.9936673771464162,0
21792.0,1.942425622593405,0
21802.0,1.8744454624592244,0
21812.0,1.8066525821879413,0
21822.0,1.7351372898794055,0
21832.0,1.6655443088406143,0
21842.0,1.6067090490609865,0
21852.0,1.5660340497074778,0
21862.0,1.5469934923460948,0
21872.0,1.5477946361642392,0
21875.0,1.5620839575344507,0
