t_center,rms_emg1,rms_emg2,rms_emg3,rms_emg4,rms_emg5,rms_emg6,rms_emg7,rms_emg8,mean_z_emg1,mean_z_emg2,mean_z_emg3,mean_z_emg4,mean_z_emg5,mean_z_emg6,mean_z_emg7,mean_z_emg8,channel_count,frac_active,global_active
0.142,0.4593584663239822,0.6783969371243153,0.9755859878373836,2.700106709889138,5.943791747273898,5.559742737290172,1.0448139239341057,0.8030888338780032,-1.6431994240401828,-1.2354100772119536,-2.555857068989926,-0.9657761154301857,-0.7936839855226756,0.4555429162894365,-1.0867457769390132,-0.8980376221265566,0,0.0,0
0.242,0.8549976318922726,1.1656840880385115,1.5250235814356976,3.3697372876004827,6.541707627081226,6.313293523137835,1.268066076419408,0.875260833602589,-0.3367779766492819,0.07021432259285204,-0.4443495498996298,0.263478079466932,-0.3264499328439385,1.5965898330508907,0.09630069448787215,-0.3448619433345276,1,0.125,0
0.34199999999999997,0.8596500040763424,1.1379704378954247,1.7645409438894941,2.494730966119388,3.5327481347577727,3.4032919817551908,0.9252688550361325,0.4918168481465548,-0.2688267300293269,-0.012316149075759553,0.34434083403239024,-0.5980055589405758,-1.665416289581446,-0.781429150951101,-1.0192843140086376,-1.3665059508887634,0,0.0,0
0.442,0.5928428655829424,0.7017497205741386,1.772135616399066,2.0062538665296303,3.71750808040861,2.316506940225533,1.188382417583044,0.5239864423288942,-1.059686600462134,-1.086566887174086,0.37166842092968183,-0.9966674382910913,-1.4853387199295525,-1.3176002877515962,-0.22705654851755738,-1.2177406310072638,0,0.0,0
0.542,0.6713133804904794,0.6082482114998162,1.7617841682556408,2.125695988935956,5.790270264797832,3.459485433320323,1.3677157583762483,1.1975205516943346,-0.8566538804412149,-1.3509011281821848,0.34528164105491854,-0.8727860345267437,-0.4421938599940982,-0.3977023603494815,0.5525670296856833,0.41321496436659366,0,0.0,0
0.642,1.1013924117210292,1.2196790437257528,2.0927955173532657,2.8048617135907854,7.20146266974086,4.420479242996462,1.6355522159597182,1.7163281593325612,0.4627666508517859,-0.0007066171415021083,1.1823809607638631,-0.19569638206680412,0.2620379262612273,0.33685615733874547,1.2938340399104307,2.2563106758169402,3,0.375,0
0.742,1.2009940202531166,1.2552759790337358,1.8685587116680749,2.6628196649113574,5.59713126462335,3.5994208222753623,1.530610152067095,1.3643553460246025,0.9572026192604964,0.17919658623230733,0.4039129092944161,-0.4026240211994446,-0.8822083708554163,-0.5809573992662467,0.7971773069133572,0.834887018822694,2,0.25,0
0.8420000000000001,1.0227132213639414,0.9508130951388761,1.2377312673839849,1.790461034835237,2.1953627348615075,2.216645152464323,0.9765697540391999,0.554806513309228,0.39079949833652605,-0.5303997687559762,-1.0907694142720383,-1.238261963473925,-2.160488075307964,-1.3919270203592327,-0.7182282423443425,-1.1237844041208551,0,0.0,0
0.942,0.8359197154877777,1.053977182920574,1.2017727622976075,2.3205408085667982,4.2996459614428195,3.2482383377185196,1.1108389233432008,0.5326740953948986,-0.36955274936275384,-0.20025199271586974,-1.1866173573014258,-0.7317268782149472,-1.3048336302543033,-0.5436286319999315,-0.311137485448545,-1.1751176284966383,0,0.0,0
1.042,0.5073588123540484,0.7382426460114108,1.1484932935568983,3.2021693024377504,7.285353590000708,3.708770319343927,0.9495803675216115,0.6461694879725166,-1.3705232554281432,-1.1500296607232472,-1.3265029728327944,0.2631380050996203,0.24370515487596492,-0.12086501400658774,-0.9574445579555922,-0.8454541333861956,0,0.0,0
1.142,0.5016083645021207,0.6449513553237325,1.504224691526928,3.486462134380506,8.633115657264872,3.361068896192137,0.8723557848037244,0.8529074551690672,-1.4288396262211436,-1.3262766643944528,-0.5185503144545907,0.5795641968458445,0.9789556592134853,-0.423287511097164,-1.11181811106065,-0.2043252972438701,0,0.0,0
1.242,1.3770108771586198,1.3165259575310273,2.0090211562304083,4.251237106119846,9.325308091677991,3.897221015104041,1.4517903168416348,1.388254410934132,0.9344961496926455,0.4105553566113452,0.9491070762701671,1.3361791753569336,1.3020057233872042,-0.06882679669935174,0.7241215678031433,1.307211571470781,4,0.5,1
1.342,1.6713407029312919,1.378141114266593,1.7955206665566228,4.538419102220276,8.841880113924432,4.522783407176958,1.58010777324214,1.422826081540293,2.4257422951329364,0.6856190588901869,0.2794178108301845,1.6975300630121826,1.0127418150865357,0.4654515947551972,1.1576668280623472,1.4138804074140559,4,0.5,1
1.442,1.1841315505963073,1.2580858320816608,1.5736962446970906,3.8488602648851216,7.413403711349957,3.731889955246916,1.0619318664219026,1.0783503864402533,0.7350822293695761,0.3652271280779461,-0.21878181794035947,0.9573881455835714,0.3329753310599888,-0.226646314792045,-0.7094383839125393,0.4428514435869023,0,0.0,0
1.542,0.9443940932780553,1.4399037823110705,1.4826843827667617,3.4211459835602755,6.706217416631929,2.936689636507138,0.8516224924722858,1.1029148607413461,0.11594961095885865,0.9213767982071754,-0.6021072944098561,0.5128897825852163,-0.04949246165686385,-0.7602936671543745,-1.2047827020708393,0.5338956019744895,1,0.125,0
1.642,1.0627661110658149,1.0724974179779654,0.9610856363593158,2.5742279164779682,5.072219759718695,3.787089670134488,1.2802232209887179,0.7995513216351529,0.5274639521244525,-0.2930912114955306,-1.9301565424074212,-0.5361666099202693,-0.8900137172007376,-0.14167360794045739,0.22674898935523896,-0.816372447261813,0,0.0,0
1.742,0.957860152979931,1.2328519552638997,1.949623472247026,3.4121301810640885,5.904334454266292,5.274419669084921,1.3792311444120533,0.5460845938423179,0.11591960849676601,-0.000627798249801037,0.14674504862809182,0.05380019140550178,-0.5295105999438701,1.0735854188006937,0.6362131801083182,-1.4683691885913013,0,0.0,0
1.842,1.050823820654025,1.8215894862939133,2.711878187039981,5.317277080132783,11.615911828447457,6.347692631637992,1.4735800780397363,1.0393772598850162,0.3693242513622804,1.9335667942412518,2.8071897773435657,2.40705596871064,2.105190181861625,1.9987644865647407,0.9161389884879487,0.17688353906821866,6,0.75,1
1.942,0.9627547053464304,1.68010665354863,2.342999446138455,5.11201015562242,12.430529218730426,5.315909850034163,1.4617007971259954,1.0909256378295167,-0.057443326109043936,1.5429982208901039,1.7561953243082122,2.1884147811460815,2.6165300520193187,0.9391087708310023,0.8131319753115018,0.49087253815117277,4,0.5,1
2.042,0.683495085019276,1.4174280745055379,1.691115444723771,3.593993676869453,8.341437064653919,5.685429142096378,1.1735468054387992,0.9678446101771961,-0.804740163792167,0.9278340385649742,0.10958298909655287,0.598257736887286,0.7096152146240267,1.1616649482251247,-0.12576535291586213,0.13931366867790007,1,0.125,0
2.1420000000000003,0.6058939667332622,1.3866845767178015,1.8077705488358586,3.0033875865364967,6.2395510663441,5.731217401707346,1.1936833150742177,1.0552296715734826,-1.2069197215722087,0.8366656998968512,0.42908411421130366,0.002908122785187273,-0.17174628408203385,1.2124920413823044,0.0009201960806279906,0.4331075802111738,1,0.125,0
2.242,0.5114577927093291,1.1833299906889547,1.9440557130393181,2.602677021038606,6.1075214500355015,4.505010022147931,1.1489026552079533,1.0840815088579052,-1.5164878756017992,0.287230959854892,0.8703341199687193,-0.4390201282405897,-0.22890545584952773,0.41421202115162997,-0.12900246473533677,0.5412107293299636,0,0.0,0
2.3419999999999996,0.9046522847643258,1.091386411188797,2.06561126440026,4.079110801932272,8.212786345084734,4.879806993865689,1.230550334877859,1.1685031872840734,-0.169670298233992,0.03695319997708147,1.1893617516490984,0.8637335164150783,0.6964423428789309,0.7755862363524599,0.09988606259111343,0.8009641033734767,1,0.125,0
2.442,0.9270461519804728,0.935455149024983,1.9948319459374817,4.817443430328958,8.347417923184977,3.794619562326561,1.2130587729207274,0.9716042337544835,-0.007518960273071662,-0.4219443219998224,0.9391935917920338,1.8955346163659452,0.7303654864905681,-0.1463584818508397,-0.039410685840459224,0.014392976523476186,1,0.125,0
2.542,1.1809209785250898,0.9674977357414835,1.5524411858998868,3.579482719013531,7.560868786690282,4.113769239002725,0.7550374779518798,0.7665026965598245,0.660241896125001,-0.36165500756504876,-0.2697529561405524,0.5427593461823125,0.3885625768346904,0.08767719978701045,-1.6109077990005827,-0.5264869699567181,0,0.0,0
2.6420000000000003,1.4067830966805157,1.071343422830234,1.4912124374093545,2.373707104181496,7.689957605488978,5.160145908099026,0.7382783310374558,0.8045626481412246,1.6601609591092932,-0.08095591829280682,-0.414835164964087,-0.64985310925184,0.48882548302057316,1.0386880227282558,-1.6177838417872805,-0.357964065675034,1,0.125,0
2.742,1.2425239978524834,0.9081350407969947,1.7316456412993129,1.983824054541002,6.675124542927761,5.141127287639804,1.139852814597632,0.9818080851407687,1.1389285321475753,-0.5661758294119615,0.23710956110856135,-1.0802407675863752,-0.0015574396359650856,1.0244801301856725,-0.21374195358602802,0.10258130894786559,0,0.0,0
2.8419999999999996,1.2861704009963941,1.0927495731716952,1.6407177297543323,3.2343438326760565,10.36817048359309,6.87620498074183,1.4013020420324684,1.4064182291212983,1.2738275506403578,-0.09175100431451294,-0.04874994262266393,0.041256296489089864,1.4448267599191766,2.1829021893073546,0.6809080368664617,1.4608727343559906,4,0.5,1
2.942,1.713812112798646,1.5929588662819363,1.9952854044871438,5.025069446941556,15.834572472076877,10.637918165392106,2.0040190445550463,1.9048422519705472,2.6247971466739135,1.3671998897219397,0.8044598125675829,2.131294605800521,4.293083564136244,5.235690766147362,2.470687370873731,3.0074970145658004,7,0.875,1
3.042,1.6702873568699435,1.5785507849222689,1.9799225113224266,4.5560538544260725,14.155577148943715,9.714623627589047,1.8620599632038455,1.6418008559825874,2.2623342763837817,1.277593373274268,0.6303878954831739,1.3738904430566747,3.1480742206670604,4.126984781925962,1.7535278969532917,1.725359427270854,7,0.875,1
3.1420000000000003,1.0599764371107607,0.9985380691846619,1.0462777148823208,2.095821689424757,7.271857457249771,5.004040115720213,1.111928467587318,0.9059080154946562,0.2046159618492621,-0.4689068316903759,-1.9971224663405025,-1.2718720732905282,0.15305925845639717,0.7752457818751811,-0.29167427923202227,-0.1442567965464724,0,0.0,0
3.242,0.9021528734264923,0.5220517910015727,0.7541839044111533,1.7501967148988733,7.200737808123755,5.0168933267607265,1.3356032241457505,0.9131391730808923,-0.08583075931883684,-1.5384680263154062,-2.5217424615977277,-1.534836477236765,0.15180779078965898,0.8583090139572951,0.46684320324695283,-0.06866597236422085,0,0.0,0
3.3419999999999996,0.8791066564051796,0.5549468619635063,1.151080404583117,3.705844116784127,10.72954742776651,5.9087666392162355,1.3873577985620917,0.7220275181962896,-0.11515333199276326,-1.4583668491398214,-1.42319153639935,0.5233612553208198,1.8106034782842866,1.5865950485855338,0.656642660857637,-0.6602823274079973,2,0.25,0
3.442,0.702552333993159,0.883679270672011,1.290410037252939,3.833843279107178,10.04321855907511,4.7906931452815265,1.3057900368470816,0.8264865588300061,-0.6942554032339812,-0.6429903330578973,-1.1335118282794638,0.8183268688159728,1.4252939828152251,0.49031876589013484,0.25518771247106076,-0.38054425014732185,1,0.125,0
3.542,0.5846139234257711,1.2766258683262972,3.4804697888043292,3.753750342856472,7.493317732050402,3.99215330726358,2.019716972322952,1.0593623299333006,-1.1212970046756003,0.4843840511920945,3.501587574208858,0.6921994825080254,0.41101578357902646,-0.007724946766116047,2.28653335420392,0.4162185723288461,2,0.25,0
3.6420000000000003,1.1004851233047142,2.0738242250042056,5.308962808767631,5.014737304187091,6.4350159724432405,4.701380848235688,2.0270423544757152,0.9779670449404921,0.2139669530490214,2.4998602806354344,9.99591754718709,2.1561476253938,-0.28054613205895684,0.6633152182148845,2.4383462244368372,0.16334165655647662,4,0.5,1
3.742,2.188843559691433,2.744727299650061,4.990936465233762,4.78598016699976,8.12330281154832,6.034239380046431,2.1684818142705042,1.8203403112021515,3.97094484909221,4.5555095165828785,9.013417863295672,1.9342580639255993,0.16422704158304438,1.5877475820020188,2.801761000247598,2.1307103353155865,7,0.875,1
3.8419999999999996,2.407419909330123,2.874391313168712,4.6709108763129406,6.841976839262607,18.019579919311486,10.296913151844238,2.231215269371115,2.616229529821403,4.990699229154262,4.873494399556068,7.890087260857075,3.508007661440628,4.679049896331654,4.694343426695592,3.1083289272294397,5.133763975330703,8,1.0,1
3.942,2.9687530971291247,3.6932766274280646,6.796358099362929,10.221614230093822,24.912826183819533,15.746125508764106,3.2608603621383794,2.8334546800242673,6.544763835165339,6.912684698786293,13.524163733141808,7.423136935438921,8.463109454229654,9.195494319795413,5.372458820089159,5.857790938591118,8,1.0,1
4.042,3.4047462964875534,4.0748968163966435,7.082462621323887,9.288566906419769,20.545679046435307,14.949190291651558,5.544310159746359,3.6994321461280433,8.29336495683327,8.154808607225416,14.54440153982128,6.31995754152834,5.800753924044383,8.373402535267306,13.504857562003497,8.332208434056042,8,1.0,1
4.1419999999999995,2.7265909510475157,3.21660454369166,4.39362639136055,5.948279168311145,10.315194880811417,7.690598993901329,5.423955574282759,3.630113889146505,5.947751724463597,5.647985692120297,5.798833466170923,3.120801398105367,1.7027955680388847,2.0321922393594294,13.363059362624858,8.100638756013629,8,1.0,1
4.242,2.3375919015888766,2.8727472649043246,4.923977642519223,7.73114881865912,9.801947311667227,3.524604198877936,3.5568631671909103,2.5321789135170896,4.774623945981103,4.839743971321547,6.915313132063284,4.8472277425231844,1.5049386851065738,-0.40371856388955774,7.5868526974057975,4.953097513996606,7,0.875,1
4.3420000000000005,2.086975793701629,2.480099371406144,5.997037166227661,7.400267250521276,8.81799434363106,3.8367204570362663,2.54161327604917,1.8071325945259404,3.832466086092815,3.4912076879281875,11.48483938582433,4.22214566994098,0.9324879071875293,-0.04283520132127419,4.197660402351476,2.3127858912954165,6,0.75,1
4.442,2.4029452694658766,2.511165228198762,4.860704415119431,4.498276814290746,8.124292749857956,3.669927470940638,2.5065979003516317,1.5514020422186037,4.752272368121178,3.4698532925712158,8.583348027478133,1.4692917672422579,0.6499164170125695,-0.16971793611095412,4.176453483441774,1.6555809946155455,6,0.75,1
4.542,2.5061509890237006,3.4279344183313603,4.916840088796967,5.2705371831486465,11.155995059945981,5.610437844223356,2.8373042035777223,1.9006157684848255,4.871598140798547,6.266709489117695,8.711837393861119,2.3442800622907765,2.135246487871499,1.207870519355256,5.411846609025721,2.9707696410453037,7,0.875,1
4.6419999999999995,1.4667534775869302,2.9027802632637707,3.971395595899808,4.864523176953434,10.639327092358768,7.397231600376707,2.732285383948126,1.6167744708451777,0.9128347602085579,4.463250059355006,5.2266685648589295,1.8767193852440003,1.776274090837464,2.7673850938254434,4.974521391369096,2.099736476243209,8,1.0,1
4.742,1.0764152399796776,1.475617862346418,2.1005688286660957,4.263633472492993,7.501428909010284,7.088465152218017,2.314959031916375,1.6965098142886679,0.2590916739205139,0.821504658310017,1.1955954507384643,1.3721665567170858,0.3437771671320218,2.4583599020496614,3.4515528305361087,2.3372543157764425,5,0.625,1
4.8420000000000005,1.951562334834119,1.6698845778687441,2.778653995309722,4.060512227988227,7.157193256374491,7.289479323617404,1.4800304353689884,1.7897487460204833,3.2806489964822596,1.233134223206129,2.9939794005275755,1.0856720376972162,0.26454138588512555,2.636460100900292,0.8318062565675713,2.686018048963615,6,0.75,1
4.942,2.3359302150234758,2.3511944829544293,3.9934006911941218,3.2558671104770225,6.470579576053687,6.346564532546018,1.0086809454899301,1.4795951090027746,4.79653156884285,3.362971274625939,6.3458956987945925,0.33214084248082665,-0.13608884293491466,1.6133289035854026,-0.649255990898762,1.7043917148966852,5,0.625,1
5.042,2.0975022126924427,2.1257686057767775,4.470999556481462,4.6664108277807035,6.28129286467076,5.101756225689864,0.7143719178543236,1.0102693915047982,3.9253047513125745,2.693942162993973,7.847140228259154,1.6681878612053758,-0.24100738164061183,0.8281208349467424,-1.774560162402294,-0.18868214848176784,4,0.5,1
5.1419999999999995,1.5824608648267382,1.3710138854950653,3.577516993070669,5.431823617498981,6.8746021049511645,5.238819822914033,0.9074896398446317,0.39559407708253386,2.025554869987328,0.5741517620558938,5.0729663280779675,2.544867940042091,0.08667138622426077,0.9673446409598071,-1.246596747036269,-1.6669051648665554,3,0.375,0
5.242,2.0292404151427585,3.1901940832962015,3.6597052719383045,4.784909469089449,7.008067728793326,3.8178372365536757,1.4209173332445235,1.1363736526908486,3.2957654422655933,4.293976643374685,5.068799271971342,1.8438771750107006,0.14830193699042948,-0.11883100479926641,0.6521157679209224,0.03179409943631102,4,0.5,1
5.3420000000000005,3.846152275998067,5.072303174472059,6.579474194385614,7.566346238185376,9.695811279769064,5.690564871198537,2.3512182661038836,2.543898387311694,9.322392997228114,10.750473607132555,12.707533926524977,4.340526330471778,1.3756450938572784,1.2016284390458885,3.4528229773484442,4.449288954861128,7,0.875,1
5.442,3.959708619639836,4.638872218605149,6.854519691204746,9.017636522264445,12.276238814391743,7.4625794683326445,2.876370685728856,2.7124409021971454,9.625339677665014,9.311704990015084,13.917870942521906,6.504958852305343,2.718191901123123,2.8951260807725694,5.569661148865363,5.346204973647323,8,1.0,1
5.542,2.985160760916706,3.515811326177101,5.59091169671642,7.720494752470393,11.495850664006271,7.104946131586744,3.0793627114225703,2.213255057185321,6.455920443756592,6.460844495496238,10.826033522842025,5.171405396690958,2.2937875107270704,2.5659026699655487,6.183693003827553,3.951011286292993,8,1.0,1
5.6419999999999995,4.642853160867057,5.132406689430684,6.523954494090623,8.02919326847256,12.376178052844166,9.096435784306568,4.389855012066353,4.289637689103722,11.558747285074535,10.570160535760353,13.256425624504093,5.481300771068446,2.6498208946441673,3.9530031949064366,10.098427722113094,9.377199881149243,8,1.0,1
5.742,4.4024235658488315,5.223425011722391,5.5052361415748035,8.556088642189883,13.911197624699652,10.184209890472214,4.8343729573823575,4.759376603605069,10.18385430441715,11.039607914081392,9.558980887878956,6.08350421566997,3.480731330205022,5.063535205198923,11.748076286544924,11.379958172974284,8,1.0,1
5.8420000000000005,1.7664853534255085,3.2503608005966313,4.48321759646239,7.082083579329173,11.232733729991748,7.981754845290003,4.427844067127027,3.3674467803074934,2.2990607864713692,5.593114615207609,7.429749442682928,4.283192556965109,2.07851405731376,3.246843570078935,10.23934572000792,7.271223154631412,8,1.0,1
5.942,1.572110558250882,2.033638403610558,4.200121019992542,4.497664965091258,6.887200215742216,6.643775765188916,5.700094426476775,3.7721146390167806,2.080792539921927,2.5307847745975236,6.236975088604225,1.5058371203824614,-0.09175582875199514,2.262999317080446,14.078124209443663,8.530822191223262,7,0.875,1
6.042,2.0346935924204543,2.380359017557793,3.5261281764045647,3.8550869882504464,6.286803117978961,7.614935441172197,5.3327991053618335,3.7048252085378834,3.7638147201205867,3.3138928463241286,4.6418789786330805,0.9449241774650151,-0.29853744768729845,2.987035622803501,12.671072801531517,8.335341164907833,6,0.75,1
6.1419999999999995,2.3152302988135043,3.3749637497610077,4.097402178640521,3.969472825416969,7.58325434275951,7.073259847589052,4.056815825973407,2.565991231516862,4.692054305377483,6.158091550193971,6.480389341247391,1.0054106639808837,0.4636001056625956,2.305075459024775,9.296795078057349,5.114103468437627,6,0.75,1
6.242,2.0614553663066673,3.0719273466197645,3.605369306650962,2.958243874328757,7.935962962969434,4.237744437433472,4.056116154672656,2.5936126160771087,3.717050496863994,5.139741368305919,5.099680046110546,-0.1612517998935586,0.6011712532354885,0.01593864849320157,9.267806803794743,5.188286865869136,5,0.625,1
6.3420000000000005,1.3670718795842338,1.9913763803732525,4.166850487738612,4.19881620495816,7.963283831064565,5.743384846319599,3.2836420191299722,2.3791647346688425,1.5070248788687044,2.4890463552436417,6.671525886412627,0.937141481431952,0.5670052242864204,0.9968006201203832,6.815845615537619,4.400007531936192,6,0.75,1
6.442,1.0443257285195076,1.865562542667789,5.10972400763747,6.60598057495007,8.708819849988709,7.16722669095946,2.876114787774833,1.6920031182279573,0.45347233152716127,2.1719186605003173,9.611818570623559,3.840597186782138,0.9222561524765747,2.4501067844291358,5.457324032559264,2.34547677601672,6,0.75,1
6.542,0.9356303914095535,2.5142331143877925,4.640122610760659,6.095628153561478,8.11258713261233,5.071701422754948,3.4734692163443874,1.914592867464728,0.10139695687351094,3.7513783490333843,8.109906051162117,3.0928480924684276,0.5725465369630014,0.5036489589537454,7.122637867997591,2.909082891319938,5,0.625,1
6.6419999999999995,1.0975893681910478,2.7946677235397948,3.7671742145147684,4.711595513326059,6.151457919905697,3.3866031999885458,3.6242261997105376,2.199338977361273,0.6171458657503123,4.674168112153578,5.882039654284194,1.7995333679101815,-0.28801039519874605,-0.5540094625429726,7.644130885439426,3.946191457182394,5,0.625,1
6.742,1.1754344650453952,2.2011526197855313,3.3577795859541095,4.6408103187743315,7.078550131580821,5.218309965540041,2.693440058428155,2.1389339630959134,0.8993386943158133,2.9492157355275963,4.704782512983442,1.779336587745134,0.186430502787395,0.9143665819823316,4.737031921456158,3.786306500612182,5,0.625,1
6.8420000000000005,0.9107437641658152,1.398223360928863,2.4675431272448756,4.358090493360362,8.394920924890954,6.713052101077326,2.0408717296980385,1.610209356931294,-0.09208870559806415,0.5654284365110481,2.145518801457156,1.5295837362362699,0.858610509748462,2.302003585808191,2.69179021117096,1.6263928511882029,4,0.5,1
6.942,0.9419715196699618,1.7426483197436178,2.320073282421764,4.695268947206714,10.915991084472546,8.145950329310631,1.7495328448761054,1.0141124023213113,-0.027846279445190747,1.2853326642433454,1.7749721040674014,1.8945695101900604,2.0130845810540463,3.4213785386953206,1.6548576435232856,0.09687500300865053,6,0.75,1
7.042,0.9832673414939597,1.9974129153381168,3.16503194790823,4.577516311142489,10.316214590468821,8.806252249388955,2.585713228402258,1.2981499023596201,0.1444422054185594,2.2848980155567333,4.038354430689601,1.6879671078940053,1.621727152634992,3.913907826582341,4.11258197085862,1.0759367065230507,6,0.75,1
7.1419999999999995,0.9032573232225846,1.3780340573580725,3.819108533229378,5.435360680697649,7.462152714536485,6.897138297981361,2.61560129783341,1.302007293991244,-0.0744827458894849,0.6300442061904659,5.947868190036731,2.5455066824902675,0.3249864285464042,2.040865319562052,4.394180410022819,1.1737478200935796,4,0.5,1
7.242,1.0094137960658125,1.2175911196325566,3.7681780870498933,6.945796313572747,12.058937167329882,6.51966362764622,1.990923575377804,1.1553444931321086,0.3158939015341447,0.3142713145012597,5.793861258406497,4.286946681192443,2.2169347749262056,1.8198672318621298,2.561217503783392,0.6163397944289817,5,0.625,1
7.3420000000000005,0.9927486298544921,1.0484792263062266,2.87515755410507,6.185223654215819,12.170923944501158,6.490446852821381,1.6644156029762762,0.8423945622239806,0.23191521936139775,-0.25257452296076166,3.0989432753924597,3.268531477721317,2.2868634514238915,1.8730343972532313,1.2282128228921776,-0.6053154259924148,5,0.625,1
7.442,1.1203917806490513,0.729317083084434,2.0142030530646666,3.781363165689465,6.062842589056758,4.1444398844133605,1.0549450992373368,0.802652462499961,0.6407449644005948,-0.9777999089372802,0.9705305689462047,0.7347720048118719,-0.5043612866516366,0.0886108193527441,-0.5169283721977773,-0.5725999096485276,1,0.125,0
7.542,0.9482274868548695,0.6084818342861028,1.4904598658732044,3.0339128841349474,5.283674593514144,3.514028074637215,0.8114676982866081,1.0037991297624167,-0.1392043963635353,-1.4112328691501423,-0.8048862469837579,-0.1315770986597818,-0.738561662694021,-0.5570481503863032,-1.6112034879932828,0.283016844686233,0,0.0,0
7.6419999999999995,0.90074344735548,0.8059939485106832,1.0572309914295515,3.9721656758434225,6.838218611690345,5.673087600348423,1.5797140693514589,1.3355084101201706,-0.3071624549333385,-1.0610683975381987,-1.693810207161248,0.8831237183451821,0.09088939287128439,1.0085429998651865,0.2251225576598368,1.1057933034759428,1,0.125,0
7.742,1.120735511570125,1.1635976596254258,1.338091396107967,4.1098306060478285,10.124579809038606,8.153003127677405,2.159920549629473,1.7109704254308535,0.55784855642919,0.12047340465329175,-0.8727635370517668,1.2032735821034626,1.4692674849913714,3.4327898596389645,2.894366497191382,2.32112870870331,4,0.5,1
7.8420000000000005,0.8138012268418218,0.9722737062401475,2.0206086315565255,3.8961972308704897,13.311360524680557,8.466136197847959,1.584289813735645,1.3656873073226694,-0.6654376292630821,-0.49002659999275855,0.8254335661362134,1.002530776116721,3.12210134647058,3.5775091248124804,0.5368579779797711,0.9931208200344781,5,0.625,1
7.942,0.6580895769859914,0.8325447961269119,2.346767060525239,4.204921032191906,12.115403421268654,6.239221052768027,1.0066073348331546,0.8535926994367359,-0.9873940877248055,-0.8157638144423833,1.9045160753440382,1.3748945127278351,2.50162467309135,1.4830543206674167,-0.7183072603810635,-0.20554703950786757,3,0.375,0
8.042,0.9535389257867805,1.4943738104134159,2.982681844256273,5.041061870250417,8.218734497010683,4.3068411100994854,1.2883381019566966,1.073844306323735,0.11132772852892214,0.9230690790199569,3.4549120438208325,2.169042459572445,0.6845226919372025,0.31712002441129933,0.34683913277432127,0.43845270262454267,3,0.375,0
8.142,1.1950512371469557,2.24500948663298,2.9738024363035094,4.9693249158161805,5.7623085857558065,4.656381674699728,1.5286743952881698,1.5429866062592574,0.7724642982472242,3.0541882008035657,3.4446222431021916,1.9528158645143592,-0.48273665168991375,0.625696358214705,1.0959452596663515,1.7968644412450299,5,0.625,1
8.242,2.373130642469341,3.8197160945514903,3.207994495385961,4.141266080979879,6.322044818963038,4.9365804873657195,1.7051050172975357,1.7774585076533609,4.21705450936933,7.0423895590222045,3.8517544132770154,1.0315356946159,-0.3986832046719323,0.7836825647131355,1.7043500518514478,2.6883667096258894,5,0.625,1
8.341999999999999,2.5762354993398313,4.018453878704797,4.012441337995824,5.076010161335419,11.282203320792652,7.073406366364881,1.5935213089085059,1.4814188871844263,5.1282234921139,7.4986546678920565,6.327631171829825,2.049130925836346,1.8667322864638574,2.4021998303457535,1.3087959338703852,1.6995653341099302,8,1.0,1
8.442,1.5462059887114161,2.3613523284035325,3.6845911965362856,6.187486660259742,13.789739467260208,9.562361227241691,2.557247309387519,1.4935508088279004,1.3596816533438425,2.4004945884009437,5.444842943872766,3.239802502346327,3.442609039176511,4.566394347044611,3.85469325527462,1.7207342767611198,8,1.0,1
8.542,3.1786437742016207,3.97827935891901,5.03411694579319,8.239371983288905,11.112189052982242,9.238414910532113,2.626828878680529,1.857911344297647,5.621141483638654,5.840981271672549,8.568847761172156,5.372628983397756,1.9706943089832265,4.257446593838204,4.062922830005059,2.886217066638696,8,1.0,1
8.642,4.47116860076065,5.2826278187264695,6.315494674810575,7.666903586026236,10.318176819070512,6.531494324447009,3.228392719593848,2.536037148278003,11.885701253065362,11.223843168678473,12.720474357140816,4.702056576283249,1.6230206390270254,2.00223733900444,5.354479040694253,4.813983790042013,8,1.0,1
8.742,4.159402512220849,4.7790609553785925,6.320240601911233,5.770213671104639,9.164376746990305,4.305951805604654,4.94744046750279,3.469688178271705,10.952680284304808,9.939774007166472,12.803632031078601,2.9738385423979965,0.7750155713548776,0.14836556021766395,11.882063728395623,7.812052931164686,6,0.75,1
8.841999999999999,3.4556217047847384,4.870292399051935,7.128200696374076,7.358645499581275,7.01495729400116,6.230158028278309,6.8018106393665825,3.8283368491898893,8.60263040560312,10.326992178719667,14.978211206830062,4.65945528157698,-0.002091143400055473,1.423251369767978,17.67503489325893,9.036006073824472,7,0.875,1
8.942,3.236799286641653,5.110479108347684,7.630585606502721,7.711158336688378,8.577385520319847,7.450288680888808,8.064155964174859,3.662905195964554,7.864553075210578,11.07172481228124,16.32780307802762,4.87342644738087,0.8930748376716104,2.803390343841914,21.706148815670794,8.430762644106164,7,0.875,1
9.042,3.108391338089452,4.451174810923289,6.259972290189759,5.456191445033851,7.148692105969819,5.397666205860084,6.415459028742141,3.185269094650091,7.415438359357347,9.14963553849666,12.218951088467449,2.006976779741479,0.18592962740036087,1.0308034248928999,15.36177843648862,6.904775413087547,6,0.75,1
9.142,2.6512304103651587,3.3389525567343177,4.206835283657648,3.1558176598149537,7.08163234439945,5.163570792102728,4.001591771182562,2.8205648028440424,5.821870576885424,6.038739817512458,6.811315719204686,0.22198641172922812,0.11241724492029012,0.8203351211472271,9.197817960151019,5.912176070469998,5,0.625,1
9.242,1.8552519455587047,2.276710425064839,2.855664447845125,4.192449478695885,11.705699107773942,8.174002691674223,3.7266950608063314,2.3623421307780363,2.8208003281187968,3.044370974488305,3.0212063776321,1.284266489227466,2.1484690009011906,3.2210478471314277,8.162798679048269,4.254035474359187,7,0.875,1
9.341999999999999,1.134352530504528,1.292675315796058,1.7420976939011732,3.7280495362256083,10.580250809554355,7.936901714698449,2.6495658029089064,1.4815850221501998,0.7797984440433771,0.33093557596458056,0.12217096636245031,0.4399494575164352,1.0997274768457739,3.0623213837656227,4.623538157020462,1.6986225667490025,4,0.5,1
9.442,0.9982837358947317,0.8706540521318767,1.3989964111424968,1.6155399308713625,4.379573494452562,5.69448092953057,2.005664192516699,1.2070949971731193,0.27317764015312296,-0.63503574891217,-0.7510336645903113,-1.612915220118293,-1.2520413841330684,1.4792253473926416,2.5518950099063047,0.8380492214593716,1,0.125,0
9.542,0.8643990855040697,0.901301976966684,1.5419788586499485,2.467633758868509,6.185152097282939,5.057368287422732,1.5903323394496787,0.9119702005222883,-0.14644003282154316,-0.5335222430946333,-0.3413966670751356,-0.8350485824430919,-0.3054145822054185,0.9142467697035274,1.1087562591682034,-0.30079246593151254,1,0.125,0
9.642,1.1522367094104657,0.7763856363491557,1.3806893065509684,3.7224624558042563,7.104475103146132,3.5431425580663913,1.1224290039786997,0.7023058083290077,0.7205967831114312,-0.9043532171572185,-0.791398849968838,0.7911420985493827,0.25065715072504263,-0.33560315793375894,-0.2361889853263647,-0.7376036529331984,0,0.0,0
9.742,1.6066602513095032,1.0989980211268686,1.4647748101062044,3.2417253480197497,7.042548298346177,3.9088703249569248,1.2869146540388647,0.9580854586159365,2.297694279229703,-0.12830576740667912,-0.544596778921513,0.13560474523396118,0.20806472668376955,-0.12336941768174974,0.24350877417124925,0.1374722310764465,1,0.125,0
9.841999999999999,1.663428012682844,1.4756866747203357,1.6407557270162791,1.874521694449387,8.385606804285208,5.167311527072283,1.3636326854543104,0.861835872456141,2.5024835782107875,1.0838242123829755,0.023088167723723345,-1.1608076926064848,0.8162467001864029,1.0001276622843656,0.5357674234080321,-0.24729488729837484,2,0.25,0
9.942,1.1731591662974719,1.5776576943021516,1.9821615385567817,2.6469957589222632,8.70963344893226,5.8227495665767055,1.0225446793044086,0.9236933334763828,0.6298659249631682,1.3732040280540037,0.8566399889521294,-0.549218796602847,1.0040809312800683,1.5563346017654558,-0.6687311347985405,-0.11169617406734249,2,0.25,0
10.042,0.8298039088000053,1.3652543081542678,2.3383476695683636,4.778042610062087,12.727946032076883,8.169195949700347,1.3408378647554604,1.1964780324111461,-0.28282773223058694,0.6927808543799568,1.9474716306161899,1.7187141516762576,2.5159939207481785,3.254147799861567,0.21416597336995596,0.8658362515424474,4,0.5,1
10.142,0.8250476486148967,1.042449863511474,2.506741305270529,5.5986465323032455,15.510342209229414,8.961871978587133,1.5265924575370131,1.2480080380018759,-0.30979861750946275,-0.13440338215082648,2.419110191371831,2.8835000473356422,4.012411762523783,3.8722041094926083,1.0644574377130358,1.0419063035418719,5,0.625,1
10.242,0.9929084950531811,0.9276362513977758,2.2783881182704966,5.596589422674907,13.754548392212678,7.689325315223357,1.5584106004876803,1.1427279424886942,0.1303670421075719,-0.41947377370715655,1.6932108605403215,2.873360603461701,3.250286967095311,2.863093086730565,1.1423894574712907,0.698249923586391,5,0.625,1
10.341999999999999,1.0374920557472345,0.959109055459084,1.6193441091766376,5.040941705609471,10.171816369877366,6.724846898920009,1.4568901525922426,0.8855609338189361,0.2672663434856526,-0.35320266435766046,-0.10787375055795886,2.0774806152044847,1.470610478632812,2.2141056325854427,0.7006123228209404,-0.12099282367270622,3,0.375,0
10.442,0.7396312697824932,1.0479305557745173,1.3645486137334288,3.239361959846319,7.190662689949349,5.7284743668950115,0.9468479713493794,0.7808540382280907,-0.6646280728273918,-0.09381575047442868,-0.7797116288811348,0.0700747680211149,0.23327823832461933,1.455367249069483,-0.8487850411070031,-0.4536948458373759,1,0.125,0
10.542,0.6349320487086973,0.9457767425805745,1.3903417872285435,2.815430861120922,8.379765969145772,4.728489763583822,0.9177565733619092,1.1688229479172005,-0.9309145494553551,-0.4001988456571858,-0.6893139496159406,-0.20996985256521555,0.8198871636100517,0.6097743741669966,-1.011267209388266,0.6487256378322375,0,0.0,0
10.642,0.8894155143146785,0.8909701586093186,1.484311874304442,3.1101814880906193,11.909567336909122,7.122963052971348,2.775237077776136,1.6386305471965927,-0.23174292269903063,-0.6588161162546482,-0.4889326333972104,0.1303779464238178,2.4269385560583094,2.1607799904754095,3.7987959511739944,2.2144098984900276,4,0.5,1
10.742,1.7617743749876509,2.992221636656084,3.42355190668186,3.0754878749788124,13.02992772512607,8.281696547267083,3.7841347731803454,2.3585028200953753,2.4993479176220363,3.732990704245259,3.7621724174595252,0.023452313223969713,3.0577361632462576,3.3812873329446207,8.45417715003696,4.3239966455466945,7,0.875,1
10.841999999999999,2.1211216287698487,4.045112043757261,3.9321223635114206,5.323581626344411,14.760841068314985,8.08406037957022,4.102414969067396,2.755412735190998,4.081054203439851,7.993966772422292,5.891119047622336,2.162325533704825,3.7884460604969767,3.188068351723148,9.532301257557108,5.725679014813222,8,1.0,1
10.942,2.6497426449610644,4.487225316656122,4.694721368178457,6.668340093040912,16.295539304913362,9.123036085484069,3.783900846684225,2.4731828512945633,5.6482145709798015,9.26482897088523,7.499708624757828,4.0020694425317185,4.628608156002709,4.1530175558061275,8.295527820578323,4.811339585120115,8,1.0,1
11.042,3.2353196200744962,5.208869358162413,7.824389243135951,9.632329020532381,17.530884844871192,9.601441448853777,3.8867752751263143,2.6370379976303906,7.863537300442751,11.259189704762859,16.293882363844773,6.795792679345692,5.18214453657709,4.611007090136043,8.599295632117888,5.256199588966663,8,1.0,1
11.142,3.636580019326199,4.730568056284424,7.92076349006117,10.219461125659643,15.176866869764225,7.538613887811226,4.172328599284843,2.551129384228623,9.161515229874443,9.811443463517357,16.59743065980639,7.5536471816092785,3.520427218320921,2.4149037294615416,9.727517215551678,4.908618288614237,8,1.0,1
11.242,3.9301282510001996,4.76278070636467,5.450411811633897,6.674513532701048,8.411255804802723,5.833707792266786,3.513859780987106,2.829522348715355,10.165731457199081,9.944188032940248,10.11486939398182,3.693382122663679,0.5436673583560301,1.1021446610645096,7.547852639577282,5.505562296362129,7,0.875,1
11.341999999999999,3.164449939763005,4.759704494699531,5.652832115938638,6.950639541315489,13.844238842714747,11.150511251302982,4.5044904435901785,3.929767780294239,7.166852768960337,9.918200243402609,10.914181885958921,3.999352139797414,2.7974356952121555,5.215810006966885,10.406915812711956,9.069643016282651,8,1.0,1
11.442,2.6590331142159895,3.1429831912935633,5.396720782693832,8.307246166696606,17.862648521827047,12.122852452628877,4.90824339094403,3.717856942131652,5.758859438968572,5.284416895417751,9.732877442827546,5.578772205859561,5.20848058347258,6.373784997099511,12.053848036276218,8.412098333962298,8,1.0,1
11.542,3.809060854042087,3.5907881635676384,5.519648283266736,6.815976667077299,13.508623875122117,8.684217105696469,4.132139376082572,3.3756312640548485,9.507110855877732,5.99427229028206,9.473708797332211,3.7274543776751417,2.6461524264028093,3.613302380657173,9.541748378070826,7.471536477293642,8,1.0,1
11.642,5.189263956049911,5.562332927288565,8.100348163624437,7.74597533295015,8.783918602685768,8.584797943751166,3.7528010824889955,3.7777844290047558,14.231221941678218,11.839654011764125,16.99169954755452,4.722628241810619,0.9903455334587375,3.718367266372828,8.33521094544918,8.743559100569291,7,0.875,1
11.742,4.45214985651009,4.973934123220827,7.392783613270606,7.498614387246655,9.036251954914691,8.337855669724854,2.8026987995221515,2.86456073925987,10.43866754124653,9.653435498891437,14.724868450107374,4.401677295665964,1.1489151979503043,3.521107517481899,4.74126384507701,4.90156982709903,7,0.875,1
11.841999999999999,1.8979772354350097,2.2148681723799264,3.5889183396327855,4.25969223578966,11.889148472355759,9.128579636035434,1.4525218601539418,0.9800330589414369,2.8355921261294728,2.326809669839295,4.268890862336262,1.3200064938889613,2.170781467107905,4.014365052424298,0.5916031122295011,-0.5353897081886422,5,0.625,1
11.942,1.421702678178717,1.0514668812364532,1.5967612096547763,6.316260938908897,19.223684591914786,11.776201672653901,1.3897273011131894,0.4285554140622664,1.6878738844074956,-0.11995468833697816,-0.26027979933960743,3.2070556370645575,5.744913126354731,6.346689808648695,0.5062466704269135,-1.6091032456640952,4,0.5,1
12.042,1.8606949207886627,0.869833049111594,1.1753936561580212,7.26632239617295,18.185428926433886,10.09419712365477,1.4294857980585887,0.6918952683952859,3.032427623679402,-0.6212178760673485,-1.3132401776932068,4.551931116605521,5.106256211210929,4.651677946306409,0.6310625883325053,-0.7742653866010576,4,0.5,1
12.142,1.6715493223768967,0.5752815085779931,0.9080762598882158,4.9238575279520935,9.835456329360511,6.152087174912772,1.1821661241911559,0.6556889991476763,2.1423664496406416,-1.4946487544804488,-2.0629838387807005,1.5964250313260573,1.272317590676542,1.707215127246006,-0.05548683141334285,-0.9047481632794557,4,0.5,1
12.242,0.8975019674338784,0.2763939549376312,0.6031108538371458,1.9677249958157534,5.081406216008192,3.9447614483025055,1.054333810239059,0.3590082075857256,-0.04163994039496487,-2.402263231230651,-3.3394762465489065,-1.7072830139651636,-1.28254306706863,-0.3931919410998673,-0.5147931820569962,-1.7475828344453421,0,0.0,0
12.341999999999999,0.7851616341097094,0.04105476330011944,0.06015319023718672,0.19155047084205212,0.9128214198415452,1.3236007358186734,0.6770883428913136,0.25368452940036496,-0.4177720435139742,-2.8923534752208058,-4.434080860758334,-3.0072505590838525,-2.811798177984781,-2.118133417711967,-1.7048568123230516,-2.040565067167972,0,0.0,0
12.442,0.6201061724701554,0.02459299476022954,0.019115321592911277,0.1017843957122203,0.3354971228569775,0.9008892266012543,0.460796132104023,0.1943698434273499,-0.9903343684878164,-2.910187319671819,-4.455965311919469,-3.052253523177427,-2.995186964000826,-2.4043487414524,-2.3886374960204315,-2.228522547351056,0,0.0,0
12.542,0.45406439142931554,0.0427620649077092,0.025153509242021276,0.10456447832371472,0.20725387748113844,0.6887915051001527,0.3078143313260203,0.13688306620274565,-1.5541660036362475,-2.854471206644375,-4.430931015947943,-3.0485377798781554,-3.062563039575269,-2.5815801838587142,-2.894420919508099,-2.4072049067004753,0,0.0,0
12.642,0.3142182028424112,0.054307139695661595,0.026754312854529602,0.09477125548607071,0.08429338050130568,0.4746537201940576,0.18295952365041748,0.08967537985460275,-2.0291544609363386,-2.8193349397857554,-4.426353059038564,-3.0593009578909562,-3.119898197618361,-2.7549722426261822,-3.304568109591885,-2.5537882414626263,0,0.0,0
12.742,0.2004820735451907,0.057767950833419596,0.026085290675312917,0.08162432639627376,0.04454674714213554,0.30337713042512227,0.09061614488272034,0.05265473799276717,-2.415317364691706,-2.8093105881797777,-4.4282611566674195,-3.073722553972577,-3.1332104563295515,-2.8939103778197315,-3.6120292778975234,-2.6690410901169903,0,0.0,0
12.841999999999999,0.11239729256753946,0.055527179927544856,0.023525492329750472,0.06689733075890254,0.07917185572644846,0.17073559127202512,0.0328228074913304,0.025386203362194663,-2.7161660564064025,-2.8156554747907476,-4.435492617902381,-3.0897994157082964,-3.1162848642778993,-3.0021663441086637,-3.777249148675432,-2.754856691928978,0,0.0,0
12.942,0.049494931777328874,0.0498008542509169,0.020071808464341947,0.05217679281266752,0.10496761178768488,0.07572571426351055,0.03568132786939198,0.009133901202243135,-2.929277269468953,-2.8317334251844093,-4.4451423947016035,-3.105850908348499,-3.102294771935058,-3.0792568993806375,-3.764820016283643,-2.797157963495222,0,0.0,0
13.042,0.020715181529594492,0.04228599639069147,0.016367279677475696,0.03853074069138352,0.11373796802213114,0.031022827391698322,0.0566900379886993,0.011654177812925427,-3.0023635914804814,-2.852745769516436,-4.455504982175617,-3.1206481070583036,-3.097856507041158,-3.106597083810761,-3.6865974182818624,-2.7895104473577756,0,0.0,0
13.142,0.03548422599638087,0.034087143415391395,0.012612552362607525,0.026892686559525335,0.11099032406021643,0.05256884701168178,0.06806510233869449,0.017868623556291197,-2.9545606817300687,-2.8755830995468115,-4.465992606183848,-3.1332188804949275,-3.099210659895634,-3.0900248650689757,-3.646043805322484,-2.7673820815627623,0,0.0,0
13.242,0.04953774659574892,0.02615405090582753,0.009208065552453678,0.017380804036169702,0.10059577115810486,0.07386908754019277,0.07016952368083712,0.020991405272655566,-2.8999570984842196,-2.8975468316188255,-4.475372188626322,-3.143553338654363,-3.1043099864209505,-3.0702262705890027,-3.63881414270415,-2.756928794003625,0,0.0,0
13.341999999999999,0.05511699614988795,0.019087210321151446,0.006411230804873322,0.009828129544339448,0.08584832420920843,0.08248964119058355,0.06607339281372161,0.021427869183036807,-2.879846315973841,-2.917098626734245,-4.483125074834127,-3.1517552842123324,-3.1114851481656842,-3.0627923260144874,-3.652585830241729,-2.755513407028073,0,0.0,0
13.442,0.05465279598409167,0.013017564872932685,0.004052522538544047,0.0044435062769258935,0.0698672931211538,0.08193710688229841,0.058391409898521554,0.02003472649644317,-2.8814565163786554,-2.933899754609873,-4.489744547911527,-3.157513720590787,-3.119214875721133,-3.063249161271335,-3.6782180202697203,-2.7599472961273963,0,0.0,0
13.542,0.050144726927478935,0.008093366814563458,0.0021826298930452703,0.0018372015778370177,0.054200494815918696,0.07527114143070211,0.04891098145222319,0.017575450204984924,-2.897119081299599,-2.9474251026578484,-4.494813865031996,-3.1597176793490944,-3.126801776693218,-3.068783725643002,-3.709760481750751,-2.76770300356347,0,0.0,0
13.642,0.043198817903230026,0.00440991676124235,0.0010723277421530054,0.002862488256107595,0.03965258572529869,0.06494489318585954,0.03888921641663431,0.014657248954308545,-2.9210477837895836,-2.957653982080631,-4.4975794584062045,-3.1586899903427668,-3.133809013651294,-3.07728754541577,-3.742925701897441,-2.77687212626753,0,0.0,0
13.742,0.0354601847835188,0.001856696974727706,0.0007404056040910108,0.00397206981726997,0.02737346661909942,0.053360060527081275,0.02948292005677402,0.011612404676435237,-2.947520415297949,-2.9645342843764384,-4.498345167612513,-3.1573000274707694,-3.1396770975578634,-3.086764500947447,-3.7738847187885396,-2.786419814486366,0,0.0,0
13.841999999999999,0.027778507665752673,0.001000376721838031,0.0008565510253915035,0.004456554567081298,0.017541530099873606,0.0418235035831967,0.021199304770776986,0.008732889978404653,-2.9738413497248506,-2.9661758433225964,-4.498041313128604,-3.156752858300692,-3.144427392216079,-3.0962088426062637,-3.8012062949289493,-2.7953847531655427,0,0.0,0
13.942,0.020524399290531528,0.0017087345486827253,0.0010287562356076907,0.004564129383060484,0.009671946459589202,0.030958871806601958,0.014126008715144588,0.006241466690513983,-2.998582681589535,-2.964189230426606,-4.497550258382764,-3.156634426028753,-3.148247006541804,-3.105064466661445,-3.8244666921050223,-2.8031304974918645,0,0.0,0
14.042,0.01432975678057638,0.002301985115577777,0.0011696849579263386,0.0041885385300572675,0.004126840011283645,0.02164895987833169,0.008539679402386867,0.004145939169637834,-3.01950475732695,-2.9624040183381046,-4.49715891368932,-3.157059300047145,-3.15079369925967,-3.1125884556890773,-3.842693323368509,-2.8096756619762746,0,0.0,0
14.142,0.009357483866298725,0.0025273484450883733,0.0011916110912393494,0.0035473013542941753,0.002012038680619772,0.01413942531644181,0.004450008752641339,0.0024568675482541194,-3.036479560277571,-2.961739752098472,-4.497096677096159,-3.15775009065156,-3.1515581886865593,-3.1187099000922753,-3.85629345676683,-2.8149058185655607,0,0.0,0
14.242,0.005322983334971052,0.002407891270920522,0.001044917305233032,0.00301259131824803,0.0033617738429823673,0.008081109547047972,0.0017535975382653966,0.001235773449744965,-3.0503393643007124,-2.9620786719512493,-4.497513686866608,-3.15832744171642,-3.150956593587339,-3.1236762484062672,-3.8642662569779183,-2.8186972166078714,0,0.0,0
14.341999999999999,0.002394512637030788,0.002179498546663697,0.0009043397689601328,0.0023829323117644952,0.004446672661376216,0.003667901529217582,0.00142447592935515,0.0004920273144000129,-3.0599746674840658,-2.962706073024871,-4.497888492155374,-3.159043218965221,-3.150348522648666,-3.127184705016958,-3.8648997485618453,-2.820731741514836,0,0.0,0
14.442,0.0010275785366452917,0.0019105344344109362,0.0007936481378520058,0.0016776173791073496,0.0047822697397673876,0.0014910713270283244,0.002294286083479479,0.00048489045109830365,-3.063656295905835,-2.9634709193892044,-4.498206013094711,-3.1597903052045084,-3.150180501861391,-3.128595392546635,-3.8619290081028574,-2.820693550637308,0,0.0,0
14.542,0.001532584542775876,0.001514617911734144,0.0006826990827380453,0.0012476748474780138,0.004895105719355728,0.0022321188797370115,0.002931976598918253,0.000728410238175494,-3.0621301658763054,-2.9645927825368807,-4.498503740668943,-3.1602337424253517,-3.1501263467329825,-3.12805871052336,-3.859676852215204,-2.8198584400503584,0,0.0,0
14.642,0.002103164378598704,0.001151968066453596,0.0006170548345098589,0.0008953794619771319,0.00450688786259299,0.003127458163891635,0.00306967432767033,0.0008888326965294562,-3.0598806244496695,-2.965559622448432,-4.4986869651050165,-3.160648559021143,-3.1503251971111856,-3.127209780783923,-3.85918826342648,-2.819335904112903,0,0.0,0
14.742,0.0023081922352136846,0.0008926408395105084,0.0005127986154485613,0.0006111465455378461,0.0037074131444935557,0.0034679295350393295,0.002849528698907706,0.0009442937173928728,-3.0591458470428057,-2.9662906201164714,-4.498986603896652,-3.160918340056682,-3.1507078345444888,-3.1269171745206483,-3.85991901289742,-2.819155317229817,0,0.0,0
14.841999999999999,0.0024126989447265275,0.0006182909156555019,0.000488742381730939,0.0007109885159175222,0.0031599571915213627,0.003607403715417128,0.002597658903072058,0.0008714494739697816,-3.058791093046645,-2.967061809297946,-4.499044181466543,-3.1608120856676942,-3.1509628896593656,-3.1268034821108697,-3.860744554932405,-2.819390903310708,0,0.0,0
14.942,0.002271600456724159,0.00041972890683673826,0.0005016698402975638,0.0007189538663418159,0.0025643767820615585,0.003391662300263396,0.00222785809261277,0.0007597330881770351,-3.0593074730327228,-2.9675641375580097,-4.499006877552226,-3.1608006332810605,-3.1512721053509285,-3.126990465083331,-3.862018132187359,-2.8197329007080434,0,0.0,0
15.042,0.0018811511451273816,0.00033473105116352606,0.0004360653531833571,0.0005841251162008442,0.0017746286873706579,0.002835360374852119,0.0017184018048872313,0.0006602898059260547,-3.06063781173388,-2.967796284555936,-4.4991882569501325,-3.1609424214393984,-3.1516434892968883,-3.1274443282292537,-3.863692441453535,-2.8200486332836623,0,0.0,0
15.142,0.0016183471401579458,0.00033621401554042,0.0004987604747994305,0.0006260071079935604,0.0015500576397898375,0.002424444461230231,0.0013529998646557866,0.0005136288467079364,-3.061493416772794,-2.9677926278396773,-4.499031877874851,-3.16090052771282,-3.1517347050955022,-3.1277670514341462,-3.864844807488616,-2.8205262991337916,0,0.0,0
15.242,0.0013517690174368977,0.0003392221394705186,0.0005195485136010362,0.0006647792031746759,0.001429932467204344,0.0020085514796167737,0.0010428946912872854,0.0003680876561070424,-3.0624761423197806,-2.967787919679718,-4.4989691050054015,-3.160854648748011,-3.1518067088944566,-3.128128423780365,-3.8659359050033624,-2.8209588452146197,0,0.0,0
15.341999999999999,0.0009500849103740597,0.00027670811680073816,0.0004162764334916426,0.0005873730407362388,0.0010127467797618364,0.0014177705979527746,0.0006759937367567335,0.00028125059984464073,-3.0638360522292896,-2.9679584598298026,-4.499250283195675,-3.1609379312223025,-3.152003590944828,-3.1286095046282023,-3.867122878387631,-2.821226922656125,0,0.0,0
15.442,0.000840376744185216,0.000341290605541414,0.0004880993990883601,0.0006276732013613573,0.0011133567652929918,0.0011580768779299996,0.0005832639407650201,0.00020657955612623738,-3.064145823772139,-2.9678011102197086,-4.499073305377972,-3.1608983747098613,-3.151957644725921,-3.1287928784726047,-3.8673660385060122,-2.8214592910751843,0,0.0,0
15.542,0.0008277430297575325,0.00037975427978676146,0.0005373386244074928,0.0006610534657137891,0.0012309953974216623,0.001073213367997667,0.0005859888998024588,0.00015769768640636818,-3.064215025114698,-2.967678066275158,-4.498918597242659,-3.1608605226124595,-3.1518915767959,-3.1288742055111363,-3.8673675222559303,-2.8216002183628466,0,0.0,0
15.642,0.0006094004634193435,0.0002939318876113818,0.00043126143332256745,0.0005749185301927434,0.0010184105403231946,0.0007745778812679444,0.00044719190426958894,0.00013970977537402653,-3.0649826869062506,-2.9679243648086846,-4.49921767348346,-3.1609534429010173,-3.151993276977592,-3.1291259542570833,-3.8678287635235833,-2.8216553621594618,0,0.0,0
15.742,0.0006103476648975181,0.0003178865891425297,0.00046507496191736027,0.0006196625949308438,0.001068208949907843,0.0007630065594697529,0.00044837706716742426,0.00015951129787746248,-3.0649669835919147,-2.9678658030712812,-4.4991338419448255,-3.160909578006728,-3.151970651605796,-3.1291295991839343,-3.867817295372107,-2.8216009812684115,0,0.0,0
15.841999999999999,0.0007009405192055577,0.00037226219831170765,0.0005319885944235633,0.0006800447423255904,0.001171818948735142,0.0008775448882347559,0.000499805989071082,0.00017821878340041437,-3.06462198974412,-2.9676951732624897,-4.4989292485670065,-3.16084039778099,-3.15191754182445,-3.1290249460289803,-3.8676334457261516,-2.8215396032867717,0,0.0,0
15.942,0.0006131798882488311,0.00030832022400148,0.0004541443936210449,0.0005988983678807508,0.0010547764329070027,0.0007690908792674951,0.00045714301847649,0.00015008508933445135,-3.0649223207514806,-2.967880857454862,-4.499151555775672,-3.160929583770339,-3.1519737260937024,-3.1291133781164673,-3.8677714571340163,-2.82163215966172,0,0.0,0
16.042,0.0006126167727250292,0.00029674267755834885,0.00044823689714747786,0.0006084348557496086,0.0010850443469978778,0.0007684249228199361,0.00047188161242079783,0.0001495638410183961,-3.064916079812669,-2.967905811001967,-4.499162092875087,-3.160918652746934,-3.1519589551600644,-3.1291113901881493,-3.8677217246527,-2.821633014896154,0,0.0,0
16.142,0.000654541800011129,0.00033837527360472094,0.0004995186474563364,0.0006635827301654835,0.001149596297687361,0.0008168138722044661,0.0004900139030123227,0.00017410775872272818,-3.0647663976559096,-2.9677836886426525,-4.499012552110538,-3.160856183199523,-3.151926604250286,-3.1290700637650595,-3.8676594197487213,-2.821551594090235,0,0.0,0
16.241999999999997,0.0006385093252244208,0.00032052254654218304,0.0004776485225273044,0.0006336816611536195,0.001108585573982419,0.0008006393261111581,0.0004801009654508049,0.00016052982175784354,-3.0648222031490078,-2.9678327053442706,-4.4990730668428345,-3.1608887381562214,-3.151946585008782,-3.129083710780348,-3.867693556717407,-2.8215944261502197,0,0.0,0
16.342,0.0007339122756988173,0.0003476797787591572,0.000527200694261463,0.0007047223520206159,0.0012645852231349575,0.0009251757739557671,0.0005579516970228952,0.00016624012955167295,-3.0645122024990537,-2.9677613901081377,-4.498942785420624,-3.1608156396982108,-3.151874990174494,-3.128986809044066,-3.867447552129083,-2.821576754870329,0,0.0,0
16.442,0.0008300464542384501,0.0003914756482165007,0.0005917368594515976,0.0007881440428413941,0.0014186904666173145,0.0010478004104747744,0.0006284856537616296,0.00018588206038957914,-3.064165173199374,-2.9676321786455437,-4.49875158189982,-3.160718848454838,-3.1517958428665755,-3.128881252648276,-3.8672017163316132,-2.8215113104090306,0,0.0,0
16.542,0.0009714820216493315,0.0004556436607281657,0.0006863571017309495,0.0009090208658743146,0.0016436470954713383,0.0012289313757131784,0.0007330828129228033,0.000212307200399592,-3.0637136296557568,-2.9674669358110286,-4.498507234513164,-3.1605968453450757,-3.1516946990783885,-3.1287428317935984,-3.866878410592027,-2.821434812093723,0,0.0,0
16.642,0.001148569758496972,0.0005491854557094846,0.0008246240879554613,0.0010909317782509566,0.001955068051706485,0.0014486692728758368,0.0008629925694131571,0.0002589075237244571,-3.063092177424275,-2.9672025573017273,-4.498115130408559,-3.160395502564192,-3.1515409515029527,-3.1285582162961716,-3.866437355099472,-2.8212886307699097,0,0.0,0
16.741999999999997,0.0012986806866005062,0.0006354089897875996,0.0009513245613030878,0.0012597912505524637,0.0022319909322598397,0.0016316773059903281,0.0009723382283777596,0.0003067979377997153,-3.0625883092440382,-2.9669661800493112,-4.497766936544707,-3.1602140425752876,-3.151409182154076,-3.1284115324955453,-3.8660826599660267,-2.821140195584709,0,0.0,0
16.842,0.0015833388166033033,0.000783148535650776,0.0011709064872803465,0.001551425380790943,0.0027338174593090916,0.0019856210899629727,0.0011835267330065054,0.0003825572748059432,-3.061653798025768,-2.966571356413949,-4.497178614747543,-3.159908560845557,-3.1511760654553806,-3.1281338802583387,-3.865412361108361,-2.820911723561263,0,0.0,0
16.942,0.0017742272740919848,0.0008821114073130155,0.0013183816114952355,0.0017478780304876272,0.0030717942804607003,0.002222845227838034,0.001325566745809848,0.00043355442830831563,-3.0609609672695255,-2.96627953572857,-4.496742583883345,-3.159681548717608,-3.151002681886372,-3.1279280696579845,-3.8649138906188454,-2.8207424966984584,0,0.0,0
17.042,0.0017197315968040705,0.0008588277892990153,0.0012833310345813525,0.0017025441084839396,0.0029851677318860105,0.0021526838117018176,0.0012844792628089602,0.00042445794619393575,-3.06114758556058,-2.966344082333531,-4.496840047544067,-3.159730796257035,-3.1510445467541284,-3.1279855303417845,-3.8650499932592384,-2.8207706859729402,0,0.0,0
17.142,0.0016309311085521596,0.0008171538933219535,0.00122108640780514,0.0016210991873852445,0.0028373503277090797,0.002040102191978663,0.0012181133507089934,0.0004056792508286842,-3.061446631933902,-2.9664582071613084,-4.497010976507246,-3.1598182357794493,-3.151114962228363,-3.128076136849923,-3.865266111134207,-2.8208286481480216,0,0.0,0
17.241999999999997,0.0014297882317648657,0.0007176172684225961,0.0010726940313454806,0.00142517590922012,0.002491853414549242,0.0017876653935868891,0.001068228196384054,0.0003573957869954124,-3.0621822259041105,-2.9667541851603043,-4.49745343149526,-3.1600466059180348,-3.151293666467542,-3.1282967682703218,-3.865796137937374,-2.8209904125376655,0,0.0,0
17.342,0.0011080474221197645,0.0005556540491075531,0.0008317887493649569,0.0011069097678240683,0.0019353580267292094,0.001385044170859932,0.0008291660421114192,0.0002774515910297089,-3.0632502627378297,-2.9671916218420478,-4.498105629421724,-3.160383344363738,-3.151554884132384,-3.1286161746688923,-3.866563203807054,-2.821233678083483,0,0.0,0
17.442,0.0012923304945378906,0.0006443075596459109,0.000967448367037526,0.0012908152678214114,0.0022616323609485744,0.0016159031786792885,0.0009703610674370556,0.0003217657844555497,-3.0627847125034373,-2.9670106814797395,-4.497827045287534,-3.160235288754223,-3.1514380671697504,-3.1284767453124576,-3.8662170728869647,-2.821131758747122,0,0.0,0
17.542,0.0028403636064446122,0.0014168978162697771,0.002126928688430058,0.002837195836085179,0.0049699987774017955,0.0035514025250808043,0.0021320596817841564,0.0007076203423098329,-3.0583005750916943,-2.9651944583428462,-4.495092110417831,-3.158808759417036,-3.1503284988884808,-3.1271365690472717,-3.8629608328931724,-2.8201106232015922,0,0.0,0
17.642,0.005490743607709581,0.0027421840371145505,0.004114545650513337,0.005486872603520601,0.009606993967630874,0.006864483418936483,0.004119502626273632,0.0013700567436515847,-3.0493623172335416,-2.9615631933923074,-4.489630298702042,-3.155962220553004,-3.1481171619080293,-3.124465978329289,-3.856478495102384,-2.8180668227896546,0,0.0,0
17.741999999999997,0.008791555238691323,0.004393048751221208,0.00659043333943196,0.008787563394726841,0.015382662208988472,0.010990460084809413,0.006594656594258206,0.0021954413039465786,-3.037966927458176,-2.9569320320213697,-4.482664862995376,-3.1523319843605497,-3.1452975036670305,-3.1210614515768915,-3.8482146217314286,-2.815459312205321,0,0.0,0
17.842,0.012904129254193618,0.006449880503338315,0.00967532823353006,0.012900392712196194,0.022579369325791618,0.016131065725752243,0.009678692528903111,0.0032239162304114398,-3.0240915478969264,-2.951293390815558,-4.4741834762357895,-3.1479113002563675,-3.141863850409481,-3.116916029191772,-3.838151405904057,-2.8122842116050277,0,0.0,0
17.942,0.017969504572211435,0.008983091266774636,0.01347487407470835,0.017966217893698826,0.03144379609938535,0.022462643065581475,0.013477419570133185,0.00449063772447093,-3.006908968372196,-2.9443112469433177,-4.463680737008085,-3.1424367823999875,-3.1376115757183447,-3.1117825474438283,-3.8256889415466575,-2.8083524388981465,0,0.0,0
18.042,0.023488251438461824,0.011742928633419223,0.01761443641383147,0.02348550141245998,0.04110182631826522,0.029360927761719866,0.017616259771440202,0.005870699339741956,-2.9879740606760876,-2.936617374710389,-4.452107081478838,-3.136403901804239,-3.1329255333434,-3.1061255334053515,-3.8119551061787953,-2.8040198221165085,0,0.0,0
18.142,0.029156919307212037,0.014577661174662828,0.021866404338251523,0.029154736713889465,0.051022345589392275,0.036446616816969014,0.02186761035978984,0.0072882192774273245,-2.9686004309823373,-2.92874548753494,-4.440265435245708,-3.1302312335192446,-3.1281308568326858,-3.100337437631535,-3.7979027828263305,-2.799586947900106,0,0.0,0
18.241999999999997,0.0346713484161912,0.01733519553138644,0.026002627601830763,0.034669701069937386,0.060672997133918535,0.04333952280879887,0.02600334067703511,0.008667132955560798,-2.9496871641577727,-2.9210608596948235,-4.4287053363302435,-3.1242052646432197,-3.123450083478526,-3.094686870139976,-3.7841841821614586,-2.7952595367706676,0,0.0,0
18.342,0.03891391279528066,0.019456720062716076,0.029184876380295592,0.038912734758158075,0.0680978834531897,0.04864261877249958,0.029185217772093965,0.009728024722137787,-2.93497916535378,-2.9150848866890375,-4.419715525229088,-3.1195190771298362,-3.119810011335047,-3.09029268455914,-3.7735157554216037,-2.7918942608565245,0,0.0,0
18.442,0.040677485183237425,0.020338681473635777,0.030507809395666833,0.04067670147166608,0.07118450546730813,0.050846995841608435,0.030507883664207022,0.0101691150199772,-2.9288365577131272,-2.9125888891908627,-4.415960711607198,-3.1175617306327488,-3.1182896811121914,-3.088457544660117,-3.7690602027073083,-2.7904885018057812,0,0.0,0
18.542,0.03882391413727383,0.019412013278566818,0.029117817488186842,0.038823443772446856,0.06794107770146171,0.0485299645497402,0.029117714329577153,0.009705868612138051,-2.935415579147035,-2.9152613496227997,-4.419980983223615,-3.119657318487488,-3.119917670092064,-3.090423201747458,-3.773832328227113,-2.7919929876013656,0,0.0,0
18.642,0.03133756886282779,0.015668910097042847,0.02350318502029156,0.031337332327855606,0.05484023597265698,0.03917198488957871,0.02350297824292823,0.007834382956685794,-2.9634827645820274,-2.9266637185445594,-4.437134017718766,-3.128598666802465,-3.126863487789678,-3.0988088177891506,-3.7941910599430884,-2.798413039056091,0,0.0,0
18.741999999999997,0.018713289071685655,0.009356768052113619,0.014035024822961348,0.01871320553474096,0.03274797737022456,0.02339160972722068,0.014034825941029333,0.004678356386851286,-3.010669250823657,-2.9458337802039103,-4.46597220051663,-3.1436311263880325,-3.1385408772453665,-3.1129066439123343,-3.8284179738895467,-2.8092068792141434,0,0.0,0
18.842,0.022443693264431512,0.011221748080894276,0.016832674875362413,0.022443613983130797,0.03927646761631677,0.028054642376339336,0.0168328292904523,0.00561085374951934,-3.0040939530981987,-2.943162965841338,-4.461953998197337,-3.1415363745695624,-3.136913548850501,-3.110942138518321,-3.8236480209403667,-2.8077030242337684,0,0.0,0
18.942,0.059638942872600166,0.029819322792965813,0.04472905867504305,0.0596388080884155,0.1043681339731367,0.07454872005178051,0.04472929113077482,0.014909626380004174,-2.888458545375676,-2.8961852046446004,-4.391283080419486,-3.1046974440942594,-3.108296572764622,-3.076393967318258,-3.7397705384791657,-2.781251578927866,0,0.0,0
19.042,0.11616310707516705,0.05808141302712332,0.08712217721562066,0.11616294156601285,0.20328536534096442,0.14520392943520394,0.08712239583780326,0.029040662358097068,-2.6941238583016798,-2.817234700194332,-4.27251439630174,-3.0427865408525543,-3.060203484115327,-3.0183329943347403,-3.5988081226467883,-2.7367974024283255,0,0.0,0
19.142,0.1910693677276118,0.09553456343233255,0.14330188438223293,0.19106919535655092,0.3343712862352763,0.2388367538603719,0.14330207087034716,0.04776723501689146,-2.4394656160940804,-2.713777104772274,-4.116878602202227,-2.961657791606757,-2.9971817636567173,-2.9422492833166274,-3.4140894405978393,-2.6785441332932733,0,0.0,0
19.241999999999997,0.2851869073454147,0.1425933561107286,0.21389005799089686,0.2851867438976402,0.49907696540373064,0.3564836739877692,0.21389020836889436,0.07129663331565153,-2.1199869411189325,-2.5839855432833767,-3.9216274376152898,-2.8598785987962243,-2.9181185458436323,-2.846799308829349,-3.1823526245675677,-2.605463133386274,0,0.0,0
19.342,0.39755676235098036,0.1987783064588465,0.2981674713675159,0.3975566175312575,0.6957242110155735,0.49694598672304324,0.2981675859577967,0.09938911326584769,-1.7377475459810139,-2.4286967971312654,-3.6880197142452102,-2.738105150395402,-2.8235235637321052,-2.732598445975919,-2.905091712033471,-2.5180255701097787,0,0.0,0
19.442,0.5240903635107085,0.26204512783527323,0.3930676945619266,0.5240902421885665,0.9171580222166236,0.6551129815926533,0.39306777676530863,0.1310225301995302,-1.306057852111139,-2.2533183665156904,-3.4241901757201063,-2.6005778721104686,-2.716690826537196,-2.6036234207674256,-2.5919615440636217,-2.4192762182044163,0,0.0,0
19.542,0.6573070335835434,0.32865348068631584,0.4929802178284801,0.6573069371415533,1.1502872097927654,0.8216338127490865,0.49298027242784576,0.16432671335377558,-0.8502512207598929,-2.0681421917306935,-3.145621446680218,-2.4553674436761144,-2.6038897291033836,-2.467443028203669,-2.2613379159268026,-2.3150101049734046,0,0.0,0
19.642,0.7848933165645733,0.3924466366502989,0.5886699481085375,0.7848932439769872,1.373563222588269,0.9811166606361765,0.5886699803875943,0.19622329785884252,-0.41195402872237885,-1.8900794163694994,-2.877753713467597,-2.3157351553773085,-2.4954217920483464,-2.336493893831091,-1.9434149160235084,-2.2147492936769173,0,0.0,0
19.741999999999997,0.88789719112511,0.44394858511357294,0.665922868949489,0.8878971398961957,1.553820021020795,1.1098714988335066,0.6659228840683026,0.2219742779799847,-0.05616106598288582,-1.7455348407530145,-2.6603088919530706,-2.202386981111375,-2.4073716512061862,-2.230194375509357,-1.6853371322706359,-2.1333613858239633,0,0.0,0
19.842,0.9405743186929332,0.4702871570783823,0.7054307263675331,0.9405742855632861,1.6460050110900415,1.175717904217523,0.705430729005233,0.2351435689888032,0.12707892964647266,-1.6710916880909923,-2.54832075158662,-2.1440105545129446,-2.3620241866677403,-2.17544814703699,-1.5524222704475488,-2.091445088749653,0,0.0,0
19.942,0.9109228388756445,0.45546142274210205,0.6831921252434119,0.910922820290254,1.5941149361779503,1.138653551297541,0.6831921194445396,0.22773070588737862,0.021864300215947798,-1.713836195473086,-2.612623212008037,-2.1775297049450346,-2.3880622491440313,-2.206882905405074,-1.6287406962636655,-2.11551298139183,0,0.0,0
20.042,0.7569674433770873,0.3784837284304887,0.5677255846947843,0.756967435811092,1.3246930062211433,0.946209304638305,0.5677255737511766,0.189241861834292,-0.5470604590029995,-1.9449677088787862,-2.9603246139175106,-2.3587771477060935,-2.528857327141584,-2.3768593728964302,-2.041415649799839,-2.245654872790852,0,0.0,0
20.142,0.47361772301909216,0.236808868446606,0.35521329678318714,0.4736177220979779,0.8288310052693821,0.592022153050093,0.35521328572371147,0.1184044337650435,-1.6359761215477722,-2.387350876890778,-3.6258212604136077,-2.7056827548274893,-2.7983375474613537,-2.702192438517978,-2.831270917788838,-2.4947450315397752,0,0.0,0
20.241999999999997,0.44425285053065333,0.2221264214844099,0.33318963373964405,0.44425284596061304,0.7774424863163627,0.5553160644096613,0.3331896396190078,0.11106320952026295,-1.782502424695831,-2.4468787150288405,-3.715371616019376,-2.752362954654091,-2.834599252012986,-2.745969795686645,-2.937555136772,-2.528263033476711,0,0.0,0
20.342,1.2506678182534585,0.6253339021527814,0.9380008561722556,1.2506678102795483,2.1886686787273995,1.563334775039204,0.9380008670301465,0.3126669489546954,0.5892156651061085,-1.4833439111853566,-2.2658833938480645,-1.9967834895160508,-2.2476565281998147,-2.0373765197558056,-1.2172069709030495,-1.9857309972566668,0,0.0,0
20.442,2.541974409913554,1.2709871988824775,1.906480800483858,2.541974401761844,4.448455212746789,3.177468014530261,1.906480809905769,0.6354935972431859,5.055452895606306,0.33111081562904554,0.4636814610404592,-0.573934299606609,-1.142371100443527,-0.7030081234680837,2.0224204527821845,-0.9640763346283171,2,0.25,0
