t_center,rms_emg1,rms_emg2,rms_emg3,rms_emg4,rms_emg5,rms_emg6,rms_emg7,rms_emg8,mean_z_emg1,mean_z_emg2,mean_z_emg3,mean_z_emg4,mean_z_emg5,mean_z_emg6,mean_z_emg7,mean_z_emg8,channel_count,frac_active,global_active
0.1465,0.8483191679116583,0.7498221243109984,0.5232317048247485,1.216933076557345,0.45516353797122744,0.7886878183397941,1.1531479290862952,1.2241522637857942,-0.23187499653302202,-0.3116198576179908,-0.7813300067317157,0.3313422508490047,-0.6725747805211949,-0.46851563846060446,-0.29400705370948443,-0.2089648204813492,0,0.0,0
0.2465,1.3895632774384103,0.6157106634835694,0.7195407022629592,0.8298016597942506,0.5446712923922209,1.0358331240595786,1.0059664840211844,1.5858548141006361,0.5160969574674098,-0.5734518420958475,-0.4482617009477828,-0.25150565786658463,-0.5667741647907344,-0.17107623140163838,-0.3820308026920168,0.3651400241872485,0,0.0,0
0.34650000000000003,1.3171894662362447,0.6489564173993181,1.0519065087942112,1.1172713380003716,0.5748586489631551,0.9593031428582839,1.3279249209460042,1.4597275460801198,0.35261953173594174,-0.4503858470785987,0.29530326894012615,0.15040287309172273,-0.5344001732260797,-0.3134327774138015,-0.012108299723942745,0.19751789087666197,0,0.0,0
0.4465,0.9691099080017539,0.6812214608461699,0.9352368117909476,1.0948289341207404,0.3773045557118394,0.47880970131591155,1.4261189224921649,1.2795545176000738,0.05667078790041203,-0.43476240033908925,-0.04974000016387853,0.18777253009972472,-0.8326146404101955,-0.8213549963651766,0.12103065816415957,0.048420740562782304,0,0.0,0
0.5465,1.0035668425383721,0.559798155006647,0.5932588715063778,0.5906057290373354,0.4040996599205511,0.8319554143428514,0.9606421266181022,0.9609185498641526,0.05226156070293687,-0.6761667233020836,-0.7160588427380574,-0.5450301653971938,-0.7886175171108342,-0.4885903091662713,-0.41973021413836087,-0.6860970323677956,0,0.0,0
0.6465000000000001,0.7822430868867896,0.4685486491990956,0.6841609772803652,0.4883258418843934,0.3849355605802439,0.8723894252291724,0.6306762537079108,0.5361198370470183,-0.40492960165259156,-0.8060639821165282,-0.5323969836147759,-0.8441470147004169,-0.8304195097138236,-0.42285715184655376,-0.7518529237588959,-1.1067428912081743,0,0.0,0
0.7464999999999999,0.6126103439422258,0.92260476034393,0.9917511185354901,0.7298316120487824,0.5844268684647345,0.9430369335210274,0.8226364436897842,0.7054893145979193,-0.6108293872777703,-0.3470503384185252,0.0461156624951739,-0.49526700262672496,-0.5480172764115836,-0.3538485889726452,-0.5216255523543523,-0.7401798452289647,0,0.0,0
0.8465,0.49237833725785085,1.3469832274526359,1.263977622856345,0.9297014392200036,0.6989922217893149,0.9645486117141295,1.3840544057889073,1.155948558741832,-0.7508881325861794,0.5198880994792607,0.573552303766365,-0.05411483289679367,-0.24295439592337253,-0.3421768753770855,0.08136279423965483,-0.31414342720013805,0,0.0,0
0.9465,0.519020744659847,1.3379275735675062,1.0108085217727178,0.8311999323295152,0.6124899783310851,0.5437885217182342,1.5325156901242092,1.3091984612709247,-0.7024227889090103,0.6074882282994242,-0.059329967931086545,-0.22016618346381858,-0.36113427083790517,-0.821532996646462,0.23450526056635876,-0.017393122103592132,0,0.0,0
1.0465,0.5640683178745342,1.1211875416302879,0.6241676873298196,0.5735481484106681,0.5434466920251636,0.8664278165795132,1.4759028597371333,0.8699737024875797,-0.6719236204432137,0.4113143780000378,-0.5872364706885643,-0.6861930760916952,-0.5189162801907813,-0.6053304986371172,0.10439977042234737,-0.6546479148170132,0,0.0,0
1.1465,0.7178096859523304,0.9976281463267542,0.6713073685734967,0.6422764841134451,0.446744948859246,1.0916291267421236,1.234312292853097,0.7525971595677025,-0.5034721030874717,0.27013931216140874,-0.4944075359688913,-0.5673073848046436,-0.656488138379967,-0.31173063637630544,-0.35346569241083003,-0.8609081284895009,0,0.0,0
1.2465000000000002,0.7312284775760716,0.8613351883963823,0.5417285806831935,0.8584852214508569,0.6642564700330484,0.912288932742117,0.602591572347151,0.9902020122946391,-0.49466724915037547,-0.06494317399038686,-0.735925725579165,-0.13249006469126182,-0.32355731492542533,-0.46624166141105056,-0.9092201105468446,-0.4450463793115312,0,0.0,0
1.3465,0.7241622653037862,0.6888866898911167,0.44086861393179494,1.2121811841889913,0.9982742962309743,0.7034045057591012,1.8667230517543396,1.3169289981502905,-0.5152354524525227,-0.33033154761956574,-0.9367211342194013,0.4609788230890045,0.22892928563131862,-0.6619297645108381,0.23366612203180856,0.07486645616406609,0,0.0,0
1.4465,0.7449186218086598,0.5414304645233923,0.8027444550736991,1.1061897044126445,0.8420612554931818,0.9953290733252312,2.299866806861097,1.3660089931195112,-0.42233653164269713,-0.6303793306378893,-0.3059679493709469,0.1431443220577275,-0.1970824393361603,-0.3137225052019851,0.9692361280315461,0.12358337274443149,0,0.0,0
1.5465,1.272201347304651,0.5877987971900267,1.030868429797824,0.5986262622332358,0.5565859722023169,1.4450414929959516,1.8921500499373778,1.2271469273552547,0.3226342169515943,-0.5960328643390899,0.25806963427437873,-0.6607811154704649,-0.6569606537797558,0.31845014197306815,0.42232367800086157,-0.13578554484189376,0,0.0,0
1.6465,2.2372895915166855,1.393256384973512,2.044493989152011,1.6758010309651812,1.4352128923511829,2.25351890556721,2.6841392333983873,1.3179329289067094,1.9771083453391385,0.6730047347153802,1.426189576408833,0.5774887363894358,0.43080760530287665,1.1160824174836612,1.1062550564918816,0.0027152709740860246,0,0.0,0
1.7465000000000002,2.3906438788824977,1.8071671101992985,2.8140233488569044,2.9934332750246893,3.257698316210228,2.7570213640639807,2.8995528421924575,1.2726090952804845,2.07677137875996,1.623666277475068,3.1210682685641626,3.1631393544324617,3.1472073930972977,1.8483950474674327,1.5396801874834176,0.014255658474801449,3,0.375,0
1.8465,1.7151522534161727,1.3994503416225483,2.237372889869687,2.744064646975917,3.2922761272739813,2.128651362626236,2.115777489238653,1.3249157739503017,0.8582803193735574,0.6759699414102013,1.89767906940796,2.6874693076409795,3.4082776307368836,0.9423143687915154,0.705677607729063,0.11198827747246476,3,0.375,0
1.9465,2.5689929251940926,2.2078042779592106,2.031122977958257,1.552136478240605,2.346592479505946,2.3346909788934256,1.323325901109501,1.3666464307425392,2.283810809447077,2.179689139464952,2.0667629208870775,0.8875784859632391,2.5478798459218313,1.2424657090214017,-0.2980318197837867,0.21912862780897938,3,0.375,0
2.0465,2.554597152493862,2.236297027101531,2.168749631247141,1.8008203014987654,2.3745057050998044,2.5227764791825926,0.8002506084051064,1.153147601724898,2.3418753380443125,2.390557652355253,2.5558497330316494,1.4135626014547291,2.6955437094626054,1.7247372255530615,-0.5995900838052902,-0.08609310333184003,4,0.5,1
2.1465,1.2705575435939391,1.0651151652340092,1.6996622913523196,2.0139613590588357,2.5217264590094173,1.6141290664274317,3.0958685905409946,1.1114672752014876,0.5611463541831299,0.3129026229705524,1.401631301459435,1.7729903473713344,2.499455901836675,0.5758838589635442,1.3799646510187393,-0.2324750924599407,1,0.125,0
2.2465,1.8443203989144328,1.4318030335086511,1.773070419201569,1.9007979828834576,2.4568879753918393,1.587331919683586,4.148247526939057,1.1306385224928035,1.3408782560412948,0.8624686572498332,1.5166736318257565,1.5984467246456888,2.2580346789629204,0.562935613415156,2.961373253046139,-0.2591748554965766,2,0.25,0
2.3465,1.7797520542006018,1.2490460908715288,1.3919783314059355,1.3600518788917646,1.658332534050335,1.9638025453098804,3.898476983743168,2.691611341768455,1.1431094037510698,0.2945876839432529,0.625025303599576,0.6161164238093799,1.2866261822531089,1.0149873781643992,2.6481778924343184,1.509940349407063,2,0.25,0
2.4465,1.4900985663194974,1.4409198785506712,1.3017279886862443,1.3003817935923243,1.8216052483183724,2.2485683997269312,2.9315993333339447,2.877790163144944,0.5438561690194472,0.6122661721635697,0.5301640510249078,0.3860412285950639,1.489382253974475,1.073792446685355,1.3843248447711898,2.0247616550688967,1,0.125,0
2.5465,1.991026952415725,2.000779463940039,2.5368544785260725,2.3550048043313403,3.2959563538282657,4.782701265562334,6.236378452237063,2.7424392932465476,1.2109423527663123,1.9407116969239826,2.5695745263315626,2.013834222482198,3.4612482186922096,3.3684230867077476,3.3801883126821637,1.891811571165447,7,0.875,1
2.6465,2.4976542958540846,1.9355059338298968,2.394775369596815,2.3003686454357535,3.025388847281024,6.797636952775846,7.86702163069693,3.9844077000607063,1.8285323213562856,1.8178902492843463,2.0763397695442425,1.922104553387466,2.7376861092699496,6.735107376513092,6.179509030800729,4.1171729451615455,6,0.75,1
2.7465,2.894356845381127,2.133494548789485,1.7737872163631345,2.0232848051743195,2.352845136288319,7.099973395741386,5.6136479802967445,4.476580228824965,2.4427269612273443,2.318970887703885,1.385084073856243,1.7225323581380179,2.1711537850091935,6.6519855675463955,4.228649270925847,4.740958428067678,6,0.75,1
2.8465,2.816350531220908,2.026198579808096,1.9960471543795635,2.266155658902294,3.2199394672673947,6.0206984137592165,4.5643365695353175,4.201301711647913,2.561950075712316,2.06923819432997,1.9267419740663798,2.1390235887252436,3.810135948124442,5.086155997725339,3.152095184418709,4.117409715197406,7,0.875,1
2.9465,2.5261471243136095,1.368651935815268,1.661103749155542,2.0394137057313735,3.3676006120283546,5.65549588095501,7.595543334380231,3.6791209064947785,2.3746092698141172,0.7896819484779498,1.4968556677868836,1.6701576226117385,4.051946550668763,5.38761827489751,5.999861817501695,3.478562166771158,5,0.625,1
3.0465,2.7259980001061686,2.2076816691347187,2.49942984053755,2.4704997292441284,6.264112601111835,11.818816311406591,8.56462051402494,3.5020558481293667,2.5523803649827896,1.6849122662987472,2.940935593060517,2.096537199218526,7.49613856724452,11.902917860009325,7.445126589524235,3.1701523097233775,8,1.0,1
3.1465,2.996331366547216,3.1956809662861283,2.961968266850938,2.936355090864724,6.802499559718208,12.074593994826223,7.20652832071005,3.984313342557636,2.752121901943797,3.6618780873217838,3.9277048044800846,2.7470365940712056,8.451238746292647,12.193978836793846,5.956109654918014,3.6011075622714297,8,1.0,1
3.2465,3.731408503519642,3.270769524921271,3.364187777776266,3.6414467707706475,5.193777872121457,7.232739330920651,6.129393128252451,4.798903761996172,3.7991501503175242,4.071980800204563,4.31592067150495,3.935787375776123,6.676696352805001,6.651869466699851,4.660590699382044,4.723074373990568,8,1.0,1
3.3465,5.021991459849628,4.554204887818859,6.089173920520504,5.250963776022251,6.846651940454369,8.689820522026146,7.938769259037041,6.3358881379224155,5.802833003152024,5.726422720468303,8.196451495493813,6.457563230237598,9.00477381722498,8.526742913211216,6.384309799016665,6.945354318320758,8,1.0,1
3.4465,4.003276089194515,4.103575576221772,5.52478662366575,4.417203574565843,5.791154547244859,7.206819946366717,7.1913461369142855,5.243987900049263,3.049950174593233,4.044450098377676,5.9546568215024775,4.09515483578015,5.593872397447343,5.964571066368544,4.864757499338642,4.2070727382295345,8,1.0,1
3.5465,0.547655068448242,1.073471615969138,1.1792912411366896,0.8887362742794729,1.0076166572877578,1.7160551684840513,2.2711065717461714,0.9489141459147448,-0.8527189054497606,0.1973673495402844,0.2518415941938644,-0.4638533182729553,-0.000585515344639164,0.5404653122311713,0.5906240247598782,-0.5556729664862325,0,0.0,0
3.6465,0.6380396780944945,0.7995809215178186,1.03830819486552,0.6398093348592684,0.7353346923999932,0.9199829982273667,1.2507958582984104,0.6080248685681374,-0.6420542420524069,-0.24804562270603556,0.11229214812559006,-0.6281008897819007,-0.20936772337921286,-0.3240456262383437,-0.22265899766091454,-0.9570973588046399,0,0.0,0
3.7465,0.6098167398021563,0.8543090388622272,1.398454112125116,0.7618355609638812,0.9560975780306574,1.0645521244810525,0.796646878020653,1.0955550186125678,-0.7180400597232716,-0.18567212365750854,0.9471026624763667,-0.3453191971009561,0.15473964623869507,-0.18488603363354258,-0.573221791009442,-0.2931558449746726,0,0.0,0
3.8465,0.509962956076902,0.8791040808751172,1.5614219760998242,0.9469602741121993,1.0214831822438224,1.0755045860377448,0.8364817752784287,1.0855304300286597,-0.8766573857398561,-0.02516821387249106,1.3526222114661446,-0.0853729233732196,0.2378199654737677,-0.14373077916037877,-0.6081734159725051,-0.2773702741843914,0,0.0,0
3.9465000000000003,0.8158466811438366,0.9012764886701842,1.202970884949658,1.0566689589862905,1.288901975546832,1.2611757263451635,1.3329824584183485,0.6257756951138767,-0.36524683290997645,0.04492603330923025,0.39963098571533934,0.15201047960925332,0.6670612636321966,0.015991476814354894,-0.15520965158151884,-0.9079154344085861,0,0.0,0
4.0465,0.73689890668095,0.8440001035114286,0.7765924377173496,0.798297302356714,1.3374530053669813,1.1121016159618342,1.31876904067361,0.4660419042456284,-0.515403790757247,-0.09326260580380807,-0.32802411006442606,-0.41672713402520406,0.7028966533843527,-0.23132635154040376,-0.1530321940405478,-1.2007960244389269,0,0.0,0
4.1465,0.5136989891627655,0.9395543778748078,0.6049346540413767,0.4804528956119646,0.8391537270668075,0.7195254492040984,0.6154484667703723,0.5451330487517833,-0.7590198210422763,0.06522020733186663,-0.760795594150804,-1.0104118958979436,-0.1921000013983386,-0.5515983786193439,-0.7970260457326189,-1.059397039763234,0,0.0,0
4.2465,0.9025552089525671,1.1857382830565675,0.6915636503947302,0.6744334139403184,0.6355242969077535,0.8638816075771386,0.6966472740417424,0.5520518528531262,-0.2165722971691771,0.584350211172641,-0.6290253218373192,-0.697748507071231,-0.39840797384706256,-0.4522695756708035,-0.728413676718379,-1.0610652832163,0,0.0,0
4.3465,1.1488219237223,1.3321945574112901,0.8157023167578855,0.7144347814609763,1.0881842244417694,1.6569428825728763,2.9865398958236256,1.7268608121299514,0.2966961407714826,0.9104640231598773,-0.26277960003778356,-0.5335252981675304,0.3348765054908499,0.2470521236384344,1.2157605347628044,0.28439149478407005,1,0.125,0
4.4465,1.2411638967470757,1.3610248576583197,0.7557070871288853,0.7662701076443099,1.2208033600317147,1.764025880861465,3.2403665978260916,2.000819331485201,0.44903819188765226,0.9559311028047857,-0.49042404107554033,-0.5410918986216245,0.5389897543459782,0.5378174914674656,1.836139591976393,1.0546675033697284,1,0.125,0
4.5465,2.0372649434700545,1.5966745251412395,1.6217683074239535,2.2170800544223876,2.5068786297928853,1.5612297583623116,3.1634798325594247,1.3023742341016682,1.4169310051794355,1.12532171587337,0.9424306634718603,1.9120013687153514,2.1124014195099723,0.45833017423211614,1.5943371682209553,-0.25651157835510296,1,0.125,0
4.6465,1.9809071603291317,1.8091981567961068,2.2819769560623597,2.4432992450932924,2.7960900594984706,2.317616355582511,3.493538426928858,1.7038832611699377,1.2001947967571212,1.6007745284963861,2.4292511876553013,2.4930227374468963,3.0515075778601295,1.4511566058719356,1.97057287678097,0.309919686170604,3,0.375,0
4.7465,1.5887196894237265,1.7718385076002094,2.269083465310906,1.795026002212374,1.6428833088147536,2.2105240983370726,3.217304926123218,2.313400081969587,0.6075070448179749,1.4452491967221102,2.09723843974935,0.8610216597205964,0.9446442716903968,1.1382830436839442,1.7237214616757752,1.3764476535349097,2,0.25,0
4.8465,1.7645669134012638,1.7463469176474933,2.0967004142968957,2.0420766851805636,1.9864389856979965,3.5364581703461258,3.142870828984234,2.4728987006390635,0.8540943369904198,1.3125244445932307,1.9478635390985912,1.0526130372049618,1.1760580598380208,2.1608405455661277,1.6164222090396587,1.463017539239986,2,0.25,0
4.9465,1.497381823420167,1.3147095021974027,1.5339097134715414,1.6389598504607275,1.978610395034128,3.5514598146282714,3.0597606408798956,2.0036269680108383,0.6527353229695763,0.5386804122965829,0.7582492031104523,0.40887477660596716,1.4076088324029938,2.314166928104669,1.689703409157396,0.7612886760907521,2,0.25,0
5.0465,2.748793491926636,1.9593698333778917,1.6087310457040793,1.9369624990916394,2.354495383585332,2.864205491246236,3.93843301265063,1.6222271728716355,2.1836927453914647,1.1714958160450568,0.7686537790028374,0.7990452226848962,1.8236517320367864,1.5005776399923219,2.870074668320161,0.41190015190436874,4,0.5,1
5.1465,3.18013065732267,2.574553063724401,2.1013244309389605,2.8306551325331215,5.57756533948084,11.165445873058488,5.812580583300365,2.6194112967215273,3.0994676557353897,2.5558251432103654,1.995635097662681,2.645246953320468,6.191885979118016,9.05249363660645,4.344572311389834,1.860589462188651,7,0.875,1
5.2465,2.4338204131301757,1.9897586528595588,1.8113095156830727,2.230180849129966,5.37102945267859,11.291134605772646,5.618205413355148,2.792795539007195,2.2126203329356553,1.5465127452280918,1.348386130767753,1.5921724666950265,5.4840176262762705,9.913034101836265,3.7498762534066667,2.236146416350091,6,0.75,1
5.3465,2.382009224839816,1.6987915772602784,1.6379865562432705,2.0921327570825676,3.8028494468493133,7.778541751446911,8.911160425535169,3.529479693289616,2.0688431037508503,1.33885675812001,0.9649486779381147,1.2306452401732735,3.4290751400250215,6.780262351666135,6.436860476527207,2.6972880577659155,4,0.5,1
5.4465,2.945932729865994,2.4840192932498275,2.6866367146797123,3.894016470683765,5.6244096619823365,10.025952001133005,10.998480754126629,4.45938030337231,2.663743408267661,2.2342176617477407,2.1061801406909133,3.265532905409736,5.5012832531262905,9.099329826888141,9.176870992837948,3.5811327180847115,8,1.0,1
5.5465,2.432838435446037,2.269328451846392,2.5345612200211747,3.4402953953113045,4.722157842256709,7.363121098721418,7.157969443909496,3.325050393579575,1.6583143134077907,1.7067584654864973,1.7749626274116084,2.151786338520198,4.009991726061902,5.366095382340909,4.182536529376318,1.725360515495207,7,0.875,1
5.6465,0.9308402117326473,0.9741489502824404,1.0864712234786285,0.9435301120494577,1.617157171454512,2.357461075826332,1.572722065317259,1.0640243169528467,-0.0029445148909618846,-0.18001349677349804,0.2505232140541722,-0.1437789643493309,0.7466676727251484,1.002232932857991,0.030310589683538745,-0.49451437451469443,0,0.0,0
5.7465,0.6483221578730888,1.0675231520340542,1.1202547292076155,1.4462519108362377,0.7848600462582893,1.2722466441928892,0.9290781974220808,0.5086362013117867,-0.5580109249400569,-0.11677031813134654,0.2898226604177701,0.5317190582261491,-0.1413503867321723,-0.0978631204856668,-0.3906703677295744,-1.110217102213693,0,0.0,0
5.8465,0.47165580157508125,1.2440882126069832,0.9204293180351379,1.3207947376492069,0.8361930634073073,0.9014324183590074,0.9392355285324692,0.8908423380365855,-0.8032220092325215,0.5625349319815429,-0.22637341263046654,0.10787756162441921,0.03022040322455299,-0.4218609674861538,-0.36731395055095634,-0.5711702718890406,0,0.0,0
5.9465,0.8543300527939159,0.7742493822061551,0.6059109521748014,0.3524660183836111,1.0243068023493802,0.7821983149801321,0.6996154425216234,0.8223391513420933,-0.27296196832484115,-0.21850781014910825,-0.6865425110361371,-1.0577006907129987,0.1996357309326639,-0.48165850539852173,-0.7097230402921223,-0.7925920215494711,0,0.0,0
6.0465,0.8505241220123941,0.49321719381701684,0.5350017094997852,0.4804121849801823,0.8977660591327052,0.6705293541511153,0.557791201013938,0.39581516084226165,-0.3301567574655347,-0.7168267355750001,-0.8137047718851922,-0.8127301519020577,-0.1592686364615217,-0.6587410700284444,-0.8718364279320912,-1.3075517592690775,0,0.0,0
6.1465,0.6420297134507293,0.6257624841492043,0.5422171251764918,0.6924340555755065,0.6529395662720382,0.6706209084109135,0.7209611115873801,0.5190600821495549,-0.5791698045084047,-0.6069535983259117,-0.7956893945421798,-0.4957017771357312,-0.36893594101188143,-0.6844225524894031,-0.6698730393535531,-1.116029950143728,0,0.0,0
6.2465,0.91727387914524,0.656384626255078,1.1522652592107914,1.1081206603641591,0.8164090511415854,0.8940777034434195,0.5932636753703882,0.7948979190153705,-0.027628174882872125,-0.542636092634744,0.261991945548291,0.1306311039793303,0.009931872412360394,-0.3527798233450724,-0.7985503141914551,-0.8071836275207666,0,0.0,0
6.3465,0.9108586956650203,0.5258423807276157,1.2499225986496683,1.0562999098375436,0.6880244289079845,0.8852439226591627,0.5706469107423335,0.886745758531825,-0.08255035626898063,-0.7041835969231189,0.5521041264986115,-0.005402179399425399,-0.19869593692762583,-0.37208535950846355,-0.8148909083872239,-0.6148890390206692,0,0.0,0
6.4465,0.7840834052155062,0.6414974561409005,0.9320543344731943,0.6791075175834614,0.8348618163218932,0.7984364464029728,0.6711921773461991,0.7759824955400401,-0.3514780051422781,-0.6251869254393734,-0.11407883023300033,-0.5745668834579007,-0.021998619793756218,-0.5410066630947433,-0.682746662384653,-0.763011596953412,0,0.0,0
6.5465,1.8098105342461057,0.9050575787115676,0.6738371909434534,0.7702240899036378,1.996922718317073,1.719152174170808,1.3365978102714908,1.3604664592323368,1.0578853603462721,-0.023458156953175525,-0.7336964575247511,-0.4462891142062901,1.6976698184478687,0.4106744685548782,-0.16228457034612995,0.060048557763260506,0,0.0,0
6.6465,1.7512330986318505,0.9268233542733142,0.6538098336466599,0.7359010257153826,2.007833739079033,1.7479174510837217,1.514251581980917,1.4446496171447951,0.8420608010087998,0.07903478138027259,-0.6526198567708447,-0.4752253012388226,1.6680962533703274,0.5275820543884372,0.014009643758824629,0.3110723589856862,0,0.0,0
6.7465,0.9109467004948998,1.068624268070283,0.9268623674379298,0.9739505061737841,1.3079941682556648,0.8319299774437005,1.320309010723354,0.9785288121770457,-0.19922600774828925,0.1440944885659441,0.016786158000144255,-0.1695243993500655,0.7144666172048494,-0.4574358388288776,-0.3431020200200332,-0.41968676908836294,0,0.0,0
6.8465,1.125586533157934,1.2160122182230106,1.3442419324074062,1.1045320116197501,1.4666918514195726,1.5575272804628746,2.5751160344403763,1.049931133281403,0.10935503601850705,0.4880379322566363,0.544847706046857,0.16209164710868154,1.0695511830328766,0.28511407708441167,0.9335333970781186,-0.33823148752599347,0,0.0,0
6.9465,0.9759366542333897,0.9023212170097187,1.4900653875789733,1.4892297211505294,1.143233201585799,1.9654091447518296,2.9961340676659285,1.2280804077011471,-0.12223588832878945,-0.13756633192538048,0.6419718747668859,0.7849380604830835,0.3926355975499389,0.9129361309150201,1.6713055362958529,-0.05318039239731684,0,0.0,0
7.0465,1.48637576149572,0.9898978467608931,1.1189466184798074,1.5531578683054896,1.1972302981033436,1.831689185341301,2.963032032152284,1.8522349285092432,0.6745827798706588,0.018060169449414687,0.04512900319010369,1.0281491668211296,0.3798386883218361,0.7607908031344962,1.534356740705792,0.7647170467619968,1,0.125,0
7.1465,1.5698406924934698,1.0019407199108967,0.7617103197599678,1.1055822092232648,1.4956386970936495,1.7003977614235946,2.8941151034871675,2.0473397665820836,0.8645362781075108,0.06474031530709308,-0.46049996251943603,0.26267675117899947,0.9627140611211601,0.6364631628847564,1.6834423684380082,1.1255668387516236,1,0.125,0
7.2465,1.560864026786269,0.9299026994295208,1.3498534846204973,1.2277251679394217,1.3885439466754481,1.218114267745142,2.5554680411904354,1.939788085576106,0.849298320000711,-0.0037666971334766063,0.623555027140019,0.41764000305327104,0.8388634372154038,-0.053199617206227214,1.3910501032331113,0.8841710288763598,1,0.125,0
7.3465,2.6321376433378645,1.7714867651026034,1.762893252587368,1.627328321351734,2.188013710545174,4.907245519562161,4.932617976828375,2.437356483112663,2.4643161205944097,1.438464323544988,1.644272665036799,1.0692058368562014,2.0013439541173543,2.881457084842903,3.502764538591374,1.8645039821057818,4,0.5,1
7.4465,2.887416670937749,1.913848410174493,1.6007234045640593,1.8336763855810403,2.8384561115919107,6.997938063761273,5.948721196650817,2.437963268061655,3.022201228402496,1.7474743302239262,1.2218197919022873,1.3947746524296385,3.154217802407785,6.564239661440824,4.971210518425166,1.888141812213723,5,0.625,1
7.5465,2.527991242929623,1.6743883522168312,1.6252556256641921,2.215785671046776,3.4089013531278383,7.867739898463588,6.251767343006215,3.3081261347802333,2.2574311986331193,1.3880096199717658,1.1648836552251347,1.8563697398290069,3.4885868321633042,6.963880586140835,5.168740105104648,2.5224628966819465,5,0.625,1
7.6465,2.607836798791678,1.6170072270571654,1.6993286580032305,2.167216292810836,3.15988881749997,6.5342605352224465,5.44041763326848,3.545744350406808,2.586540142959569,1.3362404381242763,1.2822858129937993,1.640615397993633,2.921308669207095,4.882245064795116,4.026744033594681,3.1639601767839287,5,0.625,1
7.7465,2.0952294178340485,1.6245406865326557,1.6178239600761164,1.911718296708534,2.8324091076873215,4.219408670973156,3.8699684005663673,2.0708845526504063,1.8720833656797367,1.1479464174738443,1.2432020154373329,1.2393406564699307,2.8515952940120433,3.66352484046661,2.6201208136418894,0.9891149019039318,4,0.5,1
7.8465,1.280021694037098,1.4648365375073158,1.2522011645147304,1.7521031133731846,2.4874775130229727,3.6316424794284985,3.3111394496509,1.0775775398972987,0.5385841602717534,0.814875779236041,0.38888368920947997,1.0096016934216054,2.056955996173331,2.54895133219948,1.6516076417239651,-0.28530967593920076,2,0.25,0
7.9465,1.0808192210001604,1.070597290193217,0.7095366721550822,1.3580138346459432,0.8626712058066585,1.2726989294865518,1.20322888275866,0.9287757505324049,0.1440698795039032,0.30199449288833585,-0.4769203476746279,0.6669804158302091,-0.14804578302133814,-0.06794454257303983,-0.21843103674107028,-0.6101852160813438,0,0.0,0
8.0465,0.7210581764401738,0.826288675852401,0.8139328191285379,1.4969515388243078,0.6299735077871982,0.6470444191209088,0.6453582165483018,0.8394925357783711,-0.4065926623184615,-0.4600054775975012,-0.2558668006598241,0.8502444899250281,-0.4445386643714063,-0.7601390918849562,-0.7463148656433033,-0.7565197041009337,0,0.0,0
8.1465,0.6849385893037956,0.4444040903609599,0.867174192032568,1.2847300348465882,0.8678884468463173,0.42969634230817927,0.34202900082676707,0.879646146748063,-0.44963885696738204,-0.9550513305666304,-0.13397399374282273,0.3255926093056406,-0.10038141912289138,-0.9202346758297137,-1.0606196698652726,-0.6150419447596372,0,0.0,0
8.246500000000001,0.5918514386679405,0.624575004626646,0.9446309020917796,1.025633596975005,0.8981581969946288,0.586781611006293,0.7142146404972217,0.668871365158717,-0.6725935160592305,-0.5727204531403691,-0.03150356223311914,0.057153551481305236,0.04880755509317163,-0.6968294457614942,-0.6936598085027659,-0.7948237696080868,0,0.0,0
8.346499999999999,0.5866464847455183,0.7408416117475631,1.0620591596222482,0.9402172134158726,0.8924753281000033,0.6489988946246836,1.315873518354446,0.4942842816486796,-0.5375414279679744,-0.20880712372351604,0.21492694367253004,-0.08342858277241826,0.043599728127596514,-0.6217452382434058,0.05867800590839485,-1.1531880880052023,0,0.0,0
8.4465,0.8567279437029514,0.9048040612344532,0.8186087605375829,0.7204360604430111,0.7648298546011106,0.6574819638821744,1.3545590578469153,0.5026016094913602,0.03206515750499892,0.11513907480011137,-0.36274803062362304,-0.43482600017818335,-0.2193233714702523,-0.5528876431673416,0.034668199046634894,-1.162864791943343,0,0.0,0
8.5465,0.719938629478994,1.0347288966372823,0.7284838412419917,1.1465254996323773,0.5959391177503357,0.5362744053021317,0.9765890610851398,0.7656515830902583,-0.4651183104820758,0.19921980887833043,-0.4744162649928352,0.11960620762013008,-0.4575748363186288,-0.7456613401096991,-0.41730220932162587,-0.7563487379670546,0,0.0,0
8.6465,0.30337732773966825,0.8059430931282261,0.7916992322971877,1.0526896838074562,0.7235844634629325,0.3812835199214511,0.9790606875778635,1.0096981065961994,-1.045842697034977,-0.3626398558861252,-0.30285302848993356,-0.24160999551488985,-0.28999642982749796,-0.9875007980873542,-0.42019475399645984,-0.5037169843676123,0,0.0,0
8.746500000000001,0.43749482871197526,0.9476009912696395,0.9365685494476846,0.667169606987703,0.9625504839533872,0.6286064059005575,2.346990553177458,1.6691389614009793,-0.9343246491925947,-0.1450408815467552,-0.12574672705405107,-0.6146311853833182,0.026413062239468914,-0.6720857638296128,0.8162672240086954,0.5510601888230485,0,0.0,0
8.846499999999999,0.6353069917350717,1.005422387228362,1.0792746609767183,0.7496961158929533,1.1822998644810392,1.0927705899250593,2.7353575975165842,1.8422261775794935,-0.6514764789311275,0.0298929269377289,0.2599407171394382,-0.38893688261871445,0.3733592051518626,-0.06148188102078661,1.4350601588057013,0.860459872002894,1,0.125,0
8.9465,0.9856260005848244,0.6472939452459668,1.3869202082480274,0.5761047661685882,1.2124761366976722,1.5910049845675225,2.8544316671299623,1.6885996999089241,-0.06086065017960858,-0.48213344035980826,0.8497256029392175,-0.6543209889296979,0.2999461381679553,0.48210364547299556,1.4524739204350812,0.5337719440428961,0,0.0,0
9.0465,1.038040464075199,1.1925619251306108,1.945772048736453,1.608423719416081,2.71181744644076,2.091772041263855,2.9959515974621262,2.3397256165659774,0.004812536886032499,0.36343628073137746,2.1924753413809,0.5205717333353514,1.943917137725162,0.8823817154345452,1.6967273610477136,1.76182560158749,2,0.25,0
9.1465,1.504994662423669,1.4177332296220766,2.249091299354531,2.6372602952466546,4.265233233867503,6.870469943308117,2.2617675226364615,3.3498405765242163,0.6800132918535264,0.9950644264526356,2.528250363561314,2.4408947555602136,4.49155524977884,4.699080336384231,0.9005375630403699,3.2598991132784345,5,0.625,1
9.246500000000001,1.985612907821194,2.2107780777266317,2.0947037984146126,2.5658820377798772,3.6964714234136653,7.5900725976120755,1.9062116649885648,3.7117578709242585,1.5937707909034071,2.40760405430378,1.99919280824129,2.337092076178914,3.0300589182130637,5.644786083388002,0.5338235252456405,3.4294736456835797,5,0.625,1
9.346499999999999,1.7217888377842816,2.037487965379578,1.429166304519281,1.8064860139430563,1.5045794788939209,4.043443861167607,5.952274586179005,4.012604698789369,0.9477153703585374,1.5015999425442752,0.8208157026039851,1.193380284640555,0.16684099430269383,1.948956194426775,3.651599741998011,3.7833964292389517,4,0.5,1
9.4465,1.632300673207837,0.6053399184774548,1.2457693472876292,1.9444001494536127,1.650225547154109,3.112419539947819,7.952689986618497,4.245774706112429,0.9675117295132015,-0.607886878147515,0.4708929749618151,1.3810524037677276,0.7495281097490429,1.9545039358005065,6.25527495489925,4.472602971695499,3,0.375,0
9.5465,2.1361118217771145,1.9675390755902062,2.0484707901770527,3.111897896832602,4.249785111656548,5.498308295348548,6.861389162580694,3.561020523830804,1.9381342029534552,1.6089579873413795,1.9271859826704882,3.0888103813096954,4.8740145447772845,5.203302213156113,5.542714903304244,3.6015108433306624,5,0.625,1
9.6465,2.6624077832765596,2.3782790359947716,2.3561009948326386,3.2118502726330744,4.6728829367162,7.638874278533505,6.072941869452903,3.9689087223171695,2.534202838226562,2.549623096164255,2.3491673398269706,3.1370889473729586,6.023823725856793,8.235620911362254,5.117798319424763,4.0353837818561376,8,1.0,1
9.746500000000001,3.140726695968904,2.292851830248266,2.2414130996348396,2.678133311280298,3.713781330767821,6.7548637258949205,5.994181511444816,4.7751550720115254,3.1594192265636827,1.99906637766874,1.9996223007841116,2.509648574070586,4.151647703828932,6.546709652121226,4.745705843848273,4.7654753392636,8,1.0,1
9.846499999999999,5.011118334197361,4.617004350094639,4.337529869720037,3.9930294016325814,6.166368286232653,8.054945669289967,7.022469259635174,5.925877831918434,6.010804990255362,5.82265972745316,5.610140499589773,4.807515639131382,7.4965098504344985,7.608206007964214,5.391496356545591,6.354425302532365,8,1.0,1
9.9465,4.716932644857335,4.641355834344775,4.545624299501435,3.8920275405481894,5.948233733414883,8.910261877048356,6.590904010540231,5.759617028103121,5.231637693056798,6.208137078245294,6.440737878078021,4.559416151895197,7.0875335982678,8.779017484169968,4.7941052513246225,6.573676383478468,8,1.0,1
10.0465,2.6878483291786956,2.2486514078482926,3.175457369117181,2.573942972515987,3.189158822125297,5.938499801853686,3.4460192978237734,3.941917972177013,2.4269080993739376,2.4888256133042708,4.148078170699313,2.680464490955694,3.4529212657631496,4.9907533361761915,1.7592902727908597,3.552604721178213,7,0.875,1
10.1465,3.0193822298635955,1.968335939312796,2.8784853682376554,2.6980436575681823,3.87960883402077,6.907396905165472,4.818495817728486,3.4360784619154763,2.9741003918377844,1.7567329073977005,3.5749134877643427,2.7984893584622164,4.6275272869555115,6.7700284193869615,3.126068209163465,2.587839717546054,7,0.875,1
10.246500000000001,2.695650870017739,2.2425675156696503,2.0461708021893394,2.6629712114780517,4.069987602744346,7.135145278063978,5.42005527087739,2.851059021317348,2.124451854840605,1.7092505605145507,1.6430202740027466,2.131681051078784,4.2684016247781935,6.745051541190188,4.04288665411652,1.7500059765600502,7,0.875,1
10.346499999999999,1.701855891694442,1.8426343869173554,1.3621090143885888,1.8782067916660352,2.7467901022010124,3.9950878401896834,2.9879784882103513,1.7887194254293668,0.3124550763988758,1.1116763692509182,0.11988460856191278,0.49751250458610796,1.553225155914047,2.7481171999692378,1.2217110974634737,0.2840680589425642,3,0.375,0
10.4465,0.580508162661586,0.9405485396634188,0.8230892532341533,1.1371293453734155,1.0245719283192132,1.9000060104376126,1.542366731492518,1.0369707603045493,-0.7231987798592004,0.06912056501332693,-0.19281320125638743,0.23179706066125175,0.015435738555436786,0.9510637640096908,0.22340112234239753,-0.4295124726058446,0,0.0,0
10.5465,0.6158579381763903,0.8843953641740501,0.9566379381647786,1.3897607488724377,1.7042515730358994,1.0774405292359461,1.1604871823694378,0.9529170749769608,-0.6402685574374459,-0.05225223316165814,0.03520947769436951,0.7494752076754098,1.0930506062471366,-0.15443029124751387,-0.24814374796112343,-0.4357813885783671,0,0.0,0
10.6465,0.7009322617501731,0.9125694897675601,0.8047591107001487,1.0414146229297758,1.7015168960048233,0.9911084042641122,0.8844446896868204,0.9118460022165051,-0.48548887611036234,-0.01954440556294225,-0.2792654222286991,-0.05674935534349568,1.0829491708001973,-0.35233847211372954,-0.5736449841565056,-0.47729598632001613,0,0.0,0
10.746500000000001,0.5830457739900841,0.7320541869765222,0.6170178706547647,0.9156048187281528,0.8681762626713546,0.7297087220595707,0.9603474925160909,0.5845808028091052,-0.6314378652432673,-0.4563879113388474,-0.6308810698320927,-0.16508635030447524,-0.0955260181541701,-0.6210047175960968,-0.42072414347867054,-0.9740939765192803,0,0.0,0
10.846499999999999,0.797294770443259,0.6863576227476288,0.4893634605370309,0.9984748658919719,0.8103555417371171,0.4036943711550709,0.7459082276587622,0.5758172124556407,-0.4220223866434598,-0.4750343401643839,-0.9406609538480373,-0.02315625438565975,-0.189754063416207,-0.9741411058930964,-0.7305859048225645,-1.022768674226265,0,0.0,0
10.9465,0.767569465054548,0.7840608998264041,0.4836546002244658,0.7260657540211419,1.0371166887236651,0.24297538055610132,0.6685751744885421,0.5704220825925514,-0.5140236654216775,-0.2148028958996951,-0.8851675371663147,-0.5582701909391782,0.1697953414679086,-1.1353588489821338,-0.7898996908815643,-1.019015066340277,0,0.0,0
11.0465,0.3264281265248624,0.6861585509917776,0.5599561400739291,0.46340864339793963,1.042772506340181,0.818207678559036,0.952247440197791,0.5823778703770202,-1.0742901968008682,-0.38424483916117325,-0.6912142449022041,-0.9652152013473164,0.21602590830796295,-0.5884273790154433,-0.4483701573107595,-1.0017383620439295,0,0.0,0
11.1465,0.6237317836557902,0.5711712639571939,0.7352060108888129,0.43125216966351754,0.8256065948907608,0.8487636977103101,1.0574507551076235,0.6623862704395931,-0.8106846021278337,-0.5515102579888663,-0.46835367647492715,-0.9907521671965999,-0.12030038727392095,-0.4832691835671243,-0.2965913681096337,-0.811775981991384,0,0.0,0
11.246500000000001,0.7188358646428903,0.950556783007624,1.0879269931273536,0.5449033981462789,0.7534704386690873,0.4225257424817816,1.0518690211470254,0.9760081004044334,-0.4621573050725092,0.2000020597050331,0.36380193293712304,-0.7779126645808685,-0.2728687514146759,-0.9054981311154271,-0.17544211979738503,-0.42875939026672943,0,0.0,0
11.346499999999999,0.5170863748640594,1.2654015097647542,1.162501893035724,0.6725534398902662,1.5451385465798635,1.1908059693869357,1.0015881201458476,0.9927894274209146,-0.6789651480224395,0.8394350096448907,0.5752883096701704,-0.5599201283151374,0.7835610497224482,-0.16594407020304927,-0.28384765334218315,-0.3811212007628372,0,0.0,0
11.4465,0.9807385497642137,1.7557482620890388,1.8987971417889058,0.8855170913563767,1.7856950698864793,1.7017166656182834,1.786051170907386,1.038929250121565,-0.12186146949489897,1.3718560898539613,1.6035665014289302,-0.3355484797277265,1.4621357659597547,0.6230231832859578,0.4035189197857044,-0.3543267106477691,0,0.0,0
11.5465,2.263549629335928,1.9014224930813912,2.2297303870548197,1.1103927333934516,1.7869359802098597,4.724669190895438,7.91364770047626,5.534143966109661,1.87019394822851,1.6042552645895294,2.307044582190662,-0.015667631705251178,1.3007127353830796,3.540162458768929,5.644275131056263,4.75017278741951,4,0.5,1
11.6465,2.4032579114952193,1.4095939754080233,1.5752210358498688,1.1310129552393926,1.7455698693417558,5.485540505337631,9.353940568904557,5.959484733601036,2.264195578312211,0.7537201213345073,0.9232513611893549,0.20259366576288315,1.1002963412159124,5.122072090023698,8.398179985024592,6.433407019265282,3,0.375,0
11.746500000000001,1.6384041076886637,1.20046346166747,1.7120578898577106,1.77090241210765,2.353266662352834,4.311364036950198,6.6931805145606615,2.9057104362689747,0.9928287944915033,0.4536036729328434,1.4313328071336564,1.2494022021928006,2.134700396780897,3.9103914819822454,5.703126374551856,2.3336440279907,4,0.5,1
11.846499999999999,2.461816229161653,1.8852781820072542,2.270075742738879,2.1772245621403234,3.318885758988307,6.224891493617161,8.4544467985061,3.4392202796243905,1.8666272054511532,1.5069268602669195,2.609044822157522,2.0279838295783725,4.0424271922371,5.852757506035787,6.939370143005261,2.7063617906657167,5,0.625,1
11.9465,2.7875543057680248,1.9397270391226238,1.9815334146021393,1.9237176927407704,4.200651751864519,9.040586594204774,9.974204971259338,4.29595726336155,2.414947693176891,1.4061455305796577,1.8655710192307604,1.4006480663012209,4.730543759875015,9.221885159896656,9.15558307276249,4.00760108034332,5,0.625,1
12.0465,1.9670588236236046,1.5545633858666168,2.1609038204928206,2.2263234261407683,4.4915634010961245,8.727052353634553,7.056985261521895,3.448923285183191,1.2133940629224145,0.96734027897933,2.436459225445184,1.9959611642847566,5.164333575469924,8.542278985215363,5.383724775405811,2.624084482566104,6,0.75,1
12.1465,2.0408794708641746,1.8896947340376395,2.1533196256428457,2.2564957458220802,4.564658574603378,8.61541572627817,6.138250438922817,2.8663551856617837,1.7174876076090522,1.9301972849578473,2.344726985700102,2.1615073973159147,5.978566279779996,8.78759313528798,4.4366391549101385,2.336214978385688,6,0.75,1
12.246500000000001,2.367033696312018,1.7703460032749383,1.3269751122776434,1.8016044530856337,4.401092448366982,9.522725118100452,7.931818982743731,2.938734079249922,2.586306659265548,1.5868469604561053,0.5830905462740399,1.4890861686062093,6.013914081733061,10.867303510322456,6.814152375387414,2.6656241876883175,4,0.5,1
12.346499999999999,2.9561205212751123,2.5226451055581434,3.130701224436554,3.4715208327614167,5.008416494644439,8.947817059995632,6.017144531801399,2.858046256933296,3.332702573367095,2.6030308455836644,3.172988312395205,3.880519095334981,6.946513229052682,10.093310756797464,4.353125237657331,2.401079372516005,8,1.0,1
12.4465,2.6169297568434784,2.4486944152851677,3.2333154583970103,3.5801004824989593,4.451970687195914,6.599311330863327,3.707066126818096,2.5283062599627004,2.200892073352526,2.4133661879831028,3.6514808004513775,4.121602872225439,5.1919138039409765,5.680247223163873,2.379513378750044,1.534751153406996,8,1.0,1
12.5465,0.9919843662813517,1.1141108553282986,1.4060126902027192,2.115129662134821,1.830438035689929,2.2882131312048095,3.1042332107295096,1.2820458619832715,0.0943064810217428,0.3894104722568423,0.6464937666774178,1.8524394109629336,1.3117100698335091,1.1065063757604348,1.661930104284314,-0.06864849519669625,0,0.0,0
12.6465,1.0388510057659046,1.1990668311930976,1.7685138957300774,2.3489280765821725,1.789146577137353,1.5221970526508843,1.736681070398337,0.7380186823857243,0.17735609222492751,0.5262282214004701,1.2525471473982759,2.2007193342601563,1.3255077521028904,0.379500870324446,0.37087572665956986,-0.8124061867690472,1,0.125,0
12.746500000000001,1.065116789845765,1.3846611229000458,2.8915049997976436,2.266439243766026,2.1234663831472553,1.5138313895999849,1.2904773894477504,0.37636681702394237,0.15477405564419505,1.0067550287654352,3.436284178698536,2.308391989040523,1.8218518973992832,0.45725181690181443,-0.09747885946612517,-1.2869114304560154,2,0.25,0
12.846499999999999,0.750826736591018,1.2667632390525783,3.3333247193097764,3.174747619259735,2.2723458168253066,1.7358775088138558,1.643347225557302,0.5491962119188407,-0.5857512876955935,0.6118747803460003,4.512284573156286,3.2495519244192614,2.085653860802159,0.8480048829338637,0.2627517237969139,-1.1004419505125858,3,0.375,0
12.9465,0.327246518427493,0.9595171024883787,2.966434732075784,4.0462997121097555,2.477999773447948,2.049310660137357,1.8537979401488327,0.8070264597885072,-1.1005520143648198,0.10647340008502065,3.7067819064731116,4.896921513032239,2.342329612795161,0.9183116829145677,0.45808683135104133,-0.6931421124445383,3,0.375,0
13.0465,0.4542047224669527,1.2843293517209216,2.014954448484116,2.8602520744857727,2.0944633405939146,1.6706694945439644,1.4153421927829348,0.7519818995483054,-0.8456438758461805,0.764063130615672,1.3810161466575241,2.132509179777205,1.4906761962134423,0.07744145853709276,-0.06809504769834701,-0.7694266210989327,1,0.125,0
13.1465,0.5242867964523097,1.0902742477499268,1.0112621034514178,0.76663311187114,1.3265079313655421,1.1511344550428233,0.742273410193105,1.016284803023822,-0.6824119398576994,0.029666923633580165,0.08153747058980684,-0.4148254212607223,0.5579543574485517,-0.12358794721768492,-0.6219559561608204,-0.4039525566185728,0,0.0,0
13.246500000000001,0.6795998030014293,0.46752879014639587,1.531940939435696,0.8490421588955291,1.1207190308467077,1.0594972058874135,0.6404975667604393,1.4157522855295344,-0.44532706863707117,-0.8306309500792473,1.012519606172162,-0.20992867892196596,0.28678160380169815,-0.3126705374768438,-0.7961957176310827,0.34927110485198315,0,0.0,0
13.346499999999999,0.771000885514262,0.7459847061051418,1.7102905236513302,0.8482964961260262,0.7924223783922045,0.7087769586449465,0.6702749260560424,1.6259960578296087,-0.27338783347348605,-0.32034277629927266,1.3602719635525469,-0.21027345250940985,-0.12724950409052896,-0.6345826201272572,-0.7231961907419412,0.32448946149048824,0,0.0,0
13.4465,1.2884302495537372,2.0308735157710545,2.8087910427346694,2.0629691254756732,1.558935548962472,1.419555226185333,0.9639387257819745,1.8177520118146169,0.17144615981219194,1.3000683835871092,2.414224391876165,1.4251338517372067,0.6267525476168955,0.27741830442757914,-0.34262337907537577,0.4600266150955586,3,0.375,0
13.5465,2.2945189237324803,2.8487829948451666,3.4135827055321544,2.363034718970004,2.201598519755729,1.9745876457025044,4.027266792095871,2.0071343631012875,1.7164152614665869,3.155381063784302,3.327378191041262,1.73463565136441,1.7266709783944387,0.9184305434679888,1.9262419075976138,0.9423092508332392,5,0.625,1
13.6465,2.3420687225338837,2.752581206352742,3.2215188426709034,1.9583171420254653,1.8793056510345636,2.138643262927438,4.823006668333039,3.143141303212672,2.0445244996032663,3.2459832463567637,3.66947297396423,1.0978764023254965,1.180024082730808,1.035810798990706,3.3559882958573723,2.0586954770611285,4,0.5,1
13.746500000000001,2.3902535732105017,2.9559250742063488,4.001772999320288,2.5013061966843817,2.5526397402419856,1.9719811561773868,3.5845157537999928,2.9941456645905973,2.28478772281792,3.649685362400184,5.838331876910242,2.4417643830566567,2.3211853487067633,0.7144718510489291,2.26524791260205,1.790698859876029,5,0.625,1
13.846499999999999,2.3082958956423076,2.805829809599827,3.4872227302367897,2.159097345420024,2.7307742472413796,2.1958949038021944,2.6743691927490274,1.8360957753554588,2.176088614715453,3.475212903263971,4.337778989485966,1.634062229792085,2.835363375628065,1.0981712267174215,1.24231058092544,0.8980434514696455,4,0.5,1
13.9465,1.7688114696483201,2.3562481738057066,2.870712033524718,1.6393888812581594,1.9378369587175865,3.1492315429427418,2.9036246836532444,2.7139227663897887,1.3739972663143383,2.4540870417242404,3.2281032403242538,0.8093393376419574,1.4013633923083486,2.4474174618290916,1.6619229838262837,1.9408672958067785,4,0.5,1
14.0465,2.891232396450294,3.323701721627644,4.440749222029636,2.5152928187067762,2.835742919419296,3.252454366657621,4.474907257230687,2.72930287994413,2.912906762960802,3.8434509108715544,6.394000699104218,2.3210747749404455,2.4765897957660563,2.277801518558329,3.4691380191161754,1.5386820580800913,8,1.0,1
14.1465,4.5540853281351295,4.4211777027675865,5.561546894131208,4.900883236417446,7.417766553990688,10.377529611612271,6.125265203790005,4.23980748557992,5.311141597269486,5.711399461855827,8.068740495807319,5.770577074010536,8.648385078904873,8.503867039076216,5.28910843225174,3.431741068747618,8,1.0,1
14.246500000000001,5.0032159053596725,4.569710630077955,5.384481478840662,5.5244740847403815,8.188320953758724,11.883972638939719,6.685532500020229,5.173260872386455,6.222421745872838,6.0742123517864455,7.410253397900964,7.207168065664792,11.027889141366707,12.222639247476902,5.534551282926887,5.620664069858703,8,1.0,1
14.346499999999999,4.049054591426085,3.7533599676581217,4.616241873005318,3.88661674191415,5.094674197489955,7.714233218911374,5.330922428677783,3.819546236104631,4.914934937946341,5.065149868664688,6.476072275386908,4.653982801778516,6.815423913004572,7.848004406739579,3.827774439612857,3.526821494265202,8,1.0,1
14.4465,2.5860721692929984,2.6938451876438654,3.723799168024059,2.5340441360645554,2.8545072172104238,4.784243063392896,3.140673056391978,2.0828312558040265,2.025857835321621,3.0698462659691397,4.4165106870516615,2.5623511948652644,2.354815176257,3.417578909850221,1.7875122958830634,0.9540517451399048,7,0.875,1
14.5465,1.3326749802646634,1.6241596017980888,2.37354049894139,1.5332083139226869,0.7063928671219047,0.897516536376445,1.7290232498461773,0.9675806142379536,0.23431965163136884,0.8644547567121208,2.1222383039864527,0.7848311701084117,-0.4928574373948361,-0.5301800588783816,0.2329393159029112,-0.5069589587666762,1,0.125,0
14.6465,0.9889717679310378,0.9835051493699551,1.5492565887780438,0.8812616708814556,0.9784925792923627,0.3455976095245377,1.7212864370938443,0.7384333603174903,-0.05915409465529449,0.1523606505734784,1.038953521928992,-0.1744088083887645,0.12709912050196223,-1.0080793868307603,0.34149465284701747,-0.6657514450192786,0,0.0,0
14.746500000000001,0.8437342693725487,1.1275452419813294,0.7157290127313559,0.7696992962070301,1.0984471415988188,0.6363527054599408,1.6017801153340359,0.8834549848724143,-0.15463010377650493,0.5705568710239004,-0.4814981335029731,-0.3559636571130821,0.41364323866736236,-0.6696467179506637,0.24232769049078662,-0.5211786475039977,0,0.0,0
14.846499999999999,0.8646934652647356,0.899735212438062,0.5066075344940796,0.8372997884867395,0.9017136263849322,0.6237992977407529,0.931681717514555,0.8281942302303498,-0.14528989017703448,-0.015054256772489543,-0.8644287630711426,-0.22882519828809755,0.04397975232702677,-0.7197324384447684,-0.411606029858876,-0.6685672401143965,0,0.0,0
14.9465,0.6426677794460566,0.5472902002919174,0.7927870861295655,0.7402403712926975,0.6257925868064119,0.3488230190144798,0.7251174266185226,0.5639356181823341,-0.49860672954700375,-0.6731048202538398,-0.29422143256526995,-0.4427927189241581,-0.5299188579166398,-1.0048778840897077,-0.7282839042664915,-1.0266901547069889,0,0.0,0
15.0465,0.48102494450216987,0.49763988193374853,1.0681807842331714,0.6149103128291182,0.6627473769175173,0.5066386134593714,0.7770133826179764,0.3915195597885257,-0.7418338676451975,-0.7322294780795293,0.17440287253149972,-0.5342221906672134,-0.4987823348248302,-0.8553409526361981,-0.6577949440770435,-1.2680723591407506,0,0.0,0
15.1465,0.41340080468199203,0.5363751007984103,0.986695883051545,0.7066971667011724,1.1741486316889471,0.6326108132506393,1.2173067145437737,0.43530696885079495,-0.8813445394633331,-0.673432114622465,-0.016545738298082237,-0.3952735216094048,0.47365981153688785,-0.702343395821314,-0.06901655830254987,-1.2269243719340013,0,0.0,0
15.246500000000001,0.6051732342844856,0.6124997631601816,0.588865938453014,0.6786651014771112,1.0605587875278075,0.6413203099710377,1.0530065717618884,1.0044869267899326,-0.6848482844085617,-0.5226446844230468,-0.6709692340874878,-0.5216064949078619,0.21369541903545541,-0.6503718527676655,-0.40214358883684986,-0.5401196466407469,0,0.0,0
15.346499999999999,0.6302289165986591,0.6819407446922555,0.4019590896904336,0.7143105634824869,0.6418030853882702,0.7232049564227875,0.9286771249621276,1.1348643235347657,-0.7237181251663922,-0.36694724053336103,-1.0455981811113895,-0.45383858707755126,-0.36245656991548564,-0.5975989204347634,-0.555053252216108,-0.2991459105419744,0,0.0,0
15.4465,0.6326585188642342,0.7753831238649724,0.7564370860200871,0.6555697330208712,0.6778269200818817,1.1082723850291147,1.1820737542805169,0.8940410155090757,-0.6600208594060942,-0.23469719189456406,-0.5269119806762962,-0.5967870945288574,-0.31670046322354534,-0.15244404933822187,-0.23708908634138406,-0.5782487740288996,0,0.0,0
15.5465,0.7477076250571225,0.6975933536561829,0.81205982937797,0.706235079869899,0.6955631264210993,1.1009970948398136,1.1422203275381728,0.8960598222151565,-0.3733689197201238,-0.4358062925635967,-0.3328058102869012,-0.48199602392828333,-0.2831915545293508,-0.16732114156725258,-0.299160999411227,-0.5520851431328687,0,0.0,0
15.6465,0.818556457348927,0.5319309932587714,0.700128456449446,1.2094073211758427,0.9514778138611164,0.7576858582278025,0.9473885973796303,0.9402392253202112,-0.43913254703197224,-0.696861405589083,-0.4535167828764228,0.38536657720759065,0.12086480781170998,-0.6396583488377536,-0.4221420735230086,-0.5109819366682185,0,0.0,0
15.746500000000001,0.7288938154637108,0.6432104910802252,0.6805573077879614,1.2021752779951824,1.0423036723109813,0.6999249739973903,0.651834698494461,0.8521539125033527,-0.629106772721764,-0.486485290378458,-0.49888549689822026,0.15271996993596867,0.2720782658271872,-0.6192773047351673,-0.709117694991864,-0.6058847113474569,0,0.0,0
15.846499999999999,0.6486415403353455,0.7139685768706612,0.8359841290468215,1.2435117067708306,0.8218545192827775,0.6639256450544321,1.0389000563293018,1.0703070747608883,-0.541780748355486,-0.3386775466863818,-0.30481634813835223,0.05130550975294868,-0.09757808869646518,-0.5841754192646856,-0.39231176052588845,-0.25087288533550317,0,0.0,0
15.9465,1.1910145595697084,0.5848612801828893,0.8828191659809608,1.2083508186213205,0.6446177953079343,0.6622117482884476,1.041037277927613,0.9971612348972776,0.4320177150290709,-0.674075656377488,-0.14452857074734518,0.11283408727559269,-0.3519099057953742,-0.6364340492127213,-0.3479617532344735,-0.43372016119005485,0,0.0,0
16.0465,1.3091609679056497,1.14037763205769,0.9363006675410842,0.6652338114870087,0.7620374741216084,0.7237300490201158,0.8930149448844692,0.5415868146924699,0.5944421942058864,0.1530665589511726,-0.31318404804991873,-0.5525918657229029,-0.20054007787945907,-0.6614376048627649,-0.5185457486060647,-1.0290875040885608,0,0.0,0
16.1465,1.069887637167608,1.2338237382231672,1.7041224382707754,0.8444590062851026,1.0448849413304533,0.7832566921724871,1.0266437271523117,0.7811075884770429,0.07364755282328052,0.5120186377039109,1.009774223102102,-0.2567001976536671,0.044273676532868275,-0.5938642507629834,-0.3206876964965859,-0.7230042919473534,0,0.0,0
16.246499999999997,0.84869645973952,0.8494868926097003,1.6247373325267591,0.7932401795934528,0.9949159545541163,0.9694101404959714,0.741286586888502,0.769296509800385,-0.26376603308702534,-0.15967090962905936,1.0891596278876177,-0.42920903423043144,-0.002092984205658385,-0.3549615389189435,-0.6582317007662755,-0.7795708572203996,0,0.0,0
16.3465,0.6206888713044107,1.0143966238859998,0.639946329975951,0.44186433705591477,0.7484223887506005,0.9554985690495409,0.8124701902090603,0.7504014768775544,-0.5551283812524824,0.08990402948744551,-0.7933239178160904,-0.9232558464978362,-0.1511908842222727,-0.4070961889457621,-0.5546057367318109,-0.795201001572617,0,0.0,0
16.4465,0.5504953286710228,0.8407787350549688,0.06971623193307204,0.43379187641528766,0.7773910257514469,0.6744156292501797,0.7924463308391227,0.7773739577330347,-0.7335598638898584,-0.32752472236391833,-1.6491427425256548,-0.9304007797050687,-0.15963178158827845,-0.6658429378345028,-0.5736100687092238,-0.6996443316148937,0,0.0,0
16.5465,0.4228319415217695,0.5257577609005234,0.2860452024931175,0.5586033346006389,0.5854448754813172,0.5939774596406753,0.8409708786200412,0.6996892478842583,-0.9196806055251817,-0.6622866408681359,-1.3675511223669863,-0.7471917304962313,-0.5884335625417679,-0.7120940769156889,-0.5735128956104085,-0.8201984609536619,0,0.0,0
16.6465,0.5451825569398633,0.5101724046082619,0.4775136641651348,0.8153324584894996,0.2955907214708734,0.565141846231229,0.9697607523136685,0.8037166338577075,-0.6891490413329978,-0.6774052939174321,-0.9671712668309642,-0.3041714226966789,-0.9317204532714466,-0.7359827601112634,-0.37059737039181756,-0.6090236371802694,0,0.0,0
16.746499999999997,0.5355186407197443,0.4283402040031467,0.449751711031496,0.694586521398972,0.3705344330344624,0.6018887355818356,0.63932644620205,0.699781791588175,-0.695332086152291,-0.9372844238188343,-1.0441405973162008,-0.6224205466270102,-0.7521995315224937,-0.7012946685418889,-0.7897588550588256,-0.7721497614099829,0,0.0,0
16.8465,0.40560488859955907,0.7642887673079144,0.4155005123997752,0.3774350963781524,0.3795618864464728,0.5046567930873465,0.7234033981834979,0.49084814797905674,-0.8992871634107675,-0.36492508684627645,-1.0348333586967091,-0.9948947188825376,-0.6900848275687693,-0.8581850199185831,-0.7573447806529084,-1.1142224739818456,0,0.0,0
16.9465,0.3968665957716765,0.7578368319622458,0.5224815044386449,0.9405925000040012,0.49574009946233083,0.411426574808929,0.7712908722555215,0.6870065745446783,-0.9750207586339477,-0.32539759753006164,-0.885059883312507,-0.12602325210807316,-0.5551859034845186,-0.9178556407345715,-0.6555757383481149,-0.8211684411627843,0,0.0,0
17.0465,0.6668197752117428,0.6928973296000156,0.6631559255475589,0.957045194818744,0.5132465321396767,0.6828763341148117,0.5530545791194635,1.1482453708089961,-0.5752442219200451,-0.4479158045725957,-0.6140709436177163,-0.10408905521259877,-0.5295294230446698,-0.6038141660835108,-0.8208533251277039,-0.10260029340168636,0,0.0,0
17.1465,0.7122688391155496,1.0073386453887947,0.6599265444776218,0.43827589125855637,0.6626079813051575,0.8894533953890559,0.7913839321834742,1.3444659104637005,-0.4417402941645333,0.11233912904133851,-0.5862323873240075,-0.906297735297174,-0.44046889742604345,-0.28193641493547933,-0.5610082719611085,0.17297970257488524,0,0.0,0
17.246499999999997,0.6711672390159388,0.9584835328152821,0.600156480968344,0.7820884910986542,0.7454228917909215,0.8123491501144272,0.7726441898407166,1.0701687859500555,-0.5264453061419633,0.048487123228568366,-0.78709302139771,-0.4558601120581145,-0.3337565514037973,-0.44497652345327315,-0.5803261675227838,-0.29338376198408306,0,0.0,0
17.3465,1.1152834747347014,0.8079393650846362,0.5587361083406263,0.9167557547961062,1.2585982322484135,0.9036069934386443,0.6772124247862055,0.5959993261739956,0.15478455891420345,-0.08373844626022275,-0.81456967814037,-0.14704459060388295,0.23057939693548413,-0.3615095866282899,-0.713271902029664,-1.0378340478513854,0,0.0,0
17.4465,1.104876234475107,1.2791309283725847,1.1471260385947524,0.6534289343737949,1.3908478010421939,0.9971551822348744,0.9470908269613243,0.703291801720173,-0.06064308412947102,0.6531486002431364,0.20137051836024017,-0.5952352873239701,0.5657703551800468,-0.24287399914280058,-0.42154943051521443,-0.9275763526034262,0,0.0,0
17.5465,0.5416004312271319,1.2891115774294242,1.1668783128324631,1.1481010595316887,0.8894882616159987,0.8093537976829955,1.101371834705985,0.9610601238206091,-1.048180593542145,0.6155058844796872,0.2774167928409149,0.09276582236572771,-0.004834594768707913,-0.5322495400189925,-0.19666594630415551,-0.39870421303365045,0,0.0,0
17.6465,0.7382876057489359,0.8966380238411742,0.7006860510981991,1.3763266688216764,0.8492385156748004,0.7577730203797355,1.1969883843892881,1.1592008800653455,-0.537507414156756,-0.04267676056899186,-0.4989369778286191,0.6585959909905386,-0.19734225289144408,-0.509053496226634,-0.06284394503490205,-0.09569745379358034,0,0.0,0
17.746499999999997,1.0401803400607714,0.7247961163991471,0.83347167326763,0.9323993238456296,1.4692592312203478,0.9333412041590404,1.0500142125011924,1.009536744709825,0.1343871084156117,-0.3848855459676207,-0.21905451243711765,-0.18434305096711495,0.6889309798398935,-0.27211852949458765,-0.30674835084018504,-0.44395265812048557,0,0.0,0
17.8465,1.00059243344132,0.6187843906505883,1.1901656044006608,0.6206543674402049,1.4493825487692575,0.8650497984118449,0.618983511285128,0.6705911716850654,-0.06045568047273341,-0.5492623308627078,0.42860637327045376,-0.5956305164330008,0.8245615736603304,-0.36181030516986856,-0.8106705887199859,-0.8672503186674791,0,0.0,0
17.9465,0.878724294119456,0.6317985133099207,1.1089619324348892,0.555404891197299,0.8861922995174862,0.5226761684418955,0.7406824370220028,0.7907595613882621,-0.1919805539365845,-0.5262259697674572,0.1807385723619437,-0.8333609902689878,-0.01937617199317132,-0.7702729163345122,-0.709713704059702,-0.638802547673671,0,0.0,0
18.0465,0.7790353378119053,0.49662913940830555,0.5831813607505677,0.5339856954603482,0.8325353066645751,0.7178165338074167,1.1532769978131623,0.675294410186078,-0.35658999683617737,-0.7994917451055883,-0.6646145058846276,-0.9043608731741368,-0.12416468551291747,-0.6858209253752909,-0.17420196173189978,-0.9017156300039987,0,0.0,0
18.1465,0.9696498008074161,0.518262532398063,0.5725517399841752,0.5329996308680794,0.815816905971351,0.8066684621840348,1.2940355710818827,0.3854907440849644,-0.15778745724948748,-0.7786224323373908,-0.7036622126286884,-0.7845327416009427,-0.07119567977090711,-0.5592470323130436,-0.008903719226996542,-1.3127736866074613,0,0.0,0
18.246499999999997,0.8602698323461795,0.6357851028789141,0.4911864356541544,0.9334455586660068,1.19734304416071,0.6813057795440619,1.3116328315697672,0.6020645646810778,-0.36476870080782076,-0.4625415635965453,-0.8829787354458525,-0.13117887068977038,0.5808921892229821,-0.6508348190862214,-0.07269801761485843,-1.1243528781512417,0,0.0,0
