t_center,rms_emg1,rms_emg2,rms_emg3,rms_emg4,rms_emg5,rms_emg6,rms_emg7,rms_emg8,mean_z_emg1,mean_z_emg2,mean_z_emg3,mean_z_emg4,mean_z_emg5,mean_z_emg6,mean_z_emg7,mean_z_emg8,channel_count,frac_active,global_active
0.1615,0.5973369633645105,1.107791094182693,1.8044717881238022,5.504644842449572,14.682545485949914,10.038923841176327,2.3918810267041746,1.0327454999299903,-1.152343026557234,-0.9992730903992525,-0.978595015109334,-0.7245238974440142,-0.040681496483161536,0.6767285510084782,-0.42834958152746827,-0.8570835953729459,0,0.0,0
0.2615,1.103353584535291,1.6556411460193499,3.265972169329649,8.69971346212423,19.73976103352954,13.067743820067633,3.2553767245041847,1.6308103682704704,-0.7864069665477821,-0.684413496483663,-0.2172172056734292,0.23182343445477763,1.1628623008804195,2.062696226192604,0.45764662303266307,-0.37567994299623136,1,0.125,0
0.36150000000000004,1.0794867727724495,1.6122909520260975,2.984392853629791,7.7633330827829425,15.286840279525073,9.17605891347099,2.373582481419605,1.4535997896785662,-0.7998005257538818,-0.7791566787522382,-0.3952424221484585,0.032516539532172,0.4822853702096664,0.7961397784870661,-0.34952354759787707,-0.6225671314617451,0,0.0,0
0.4615,1.2537781617341823,1.531737194544566,1.4681070961323015,4.717351279254115,12.758075921206055,6.461363380994973,1.909826978362033,1.492530208198104,-0.811045820708072,-0.8516505920229193,-0.968378266595442,-0.6216616942787901,0.18084736586442995,0.03088920584887747,-0.7098987523353153,-0.6410575056086277,0,0.0,0
0.5615,1.5609838307272494,1.3058788453358379,1.3493580888129593,3.745767725134427,10.791164913248647,5.946747469881427,1.8227656746938539,1.6570402534834614,-0.5660486593438107,-0.9150169600784924,-0.9667028265926131,-0.8788282789922789,-0.3731223313926412,-0.26379121278282075,-0.778092963961159,-0.39101423413001457,0,0.0,0
0.6615,1.7730085018632753,2.515015360220188,6.5750324249700345,9.890438178791298,9.867304639652632,5.27167662893466,1.4283606652976335,1.3549753279377208,-0.4433376026249338,-0.570470179786325,0.2894832923219239,0.03971382661887866,-0.6012945384050246,-0.4340717907966556,-1.0068365082880235,-0.5994972028144291,0,0.0,0
0.7615000000000001,2.3406068363369057,4.0497023349321895,7.130937893935594,11.427362189421572,11.919021613437602,6.671113551584011,2.522992495333603,2.342533929994255,-0.05288635188272073,0.3462003424592406,0.7937508718966332,0.590308359313969,-0.16280422432737907,0.05773019266393176,-0.3908153541669918,-0.2067859662930654,1,0.125,0
0.8614999999999999,3.3386830611315155,4.448115853593512,4.676248101004293,8.86319333209785,11.840116725621217,6.855774565571138,2.983329950959756,3.2100727125684796,0.747137523467525,0.6590274695970555,0.1868833244317848,0.1597961124669059,-0.11134882863864902,0.25062182923534426,0.06526866321320193,0.4562333101281622,0,0.0,0
0.9615,4.885905609965662,5.5014745372160325,6.99044486101156,9.418680884117375,14.80878283945477,7.289105211224618,4.2573628482660455,3.842998892881669,1.827866334870891,1.1818820962319116,1.0241588672315476,0.2778554481027868,0.25769067161275605,0.41459853108972716,0.8273948308432978,0.9683905108160273,1,0.125,0
1.0615,4.411612438492504,5.040267711498674,6.34492787971662,11.704848441799074,17.718966311541777,7.242743944964628,4.249930606078512,3.7909633998258374,1.377504620665903,0.9912195251968947,0.693512448208623,0.6128644557726575,0.6188905401754494,0.40539253618565035,0.8373940608661055,1.0496755707621044,0,0.0,0
1.1615,3.1464582312687983,5.049158033693748,6.129349672400784,12.88182101198329,18.91428632859061,8.456944966472419,3.0378149990602035,3.4847673897792246,0.6562789532839166,0.9938159513214366,0.5385556718879141,0.8874849705352108,0.7787886114986629,0.6833895821007441,0.27590585680950214,0.9473759512256766,1,0.125,0
1.2614999999999998,3.3478054167992974,5.197126533574757,6.40158603659403,10.37427944519408,17.47426661804705,11.69513888385087,3.7661103910674294,4.044652151396988,0.5793132518449454,1.055519542424715,0.6693087779080996,0.44722366186033957,0.532479621464894,1.4511370726224198,0.6761587653100388,1.2230855257839708,2,0.25,0
1.3615,5.239598715091418,7.453059786043545,8.318304349216781,10.710390116428584,27.67852470145739,14.886429828360741,5.404310544626136,5.205623722211819,1.4991042921909212,1.8411525815247425,1.112929431373109,0.6468976615579334,1.8605702708334482,2.577195551332818,1.5200694276759663,1.6632561419884844,7,0.875,1
1.4615,5.000298705086256,7.229136805800779,8.62060818236961,11.785364312256544,26.877465056570845,12.160755730018737,4.755133883660651,4.537004645142164,1.3513179361349916,1.5762380789844561,1.4464894823846055,0.851839077310423,1.7286378318947688,1.5382313012032822,0.8747982180742507,1.0475425023309233,7,0.875,1
1.5615,1.7544904940637496,2.094958887621567,4.091117279758222,10.232096454453096,10.788129802247122,5.138963043326645,2.05698699039775,1.894667254775872,-0.3497747710542714,-0.40592780040035487,0.05160855990617366,0.3043532177996841,-0.2569070516784117,-0.24265777833483315,-0.42455940867504405,-0.347584615699958,0,0.0,0
1.6615,2.3797802598261906,2.5887348310690066,4.116931754279829,10.668297343221806,11.787859870222631,5.959906326640149,2.4947257316422786,2.6647785528790333,0.09451323106477241,-0.2316563211725794,0.1176859795614932,0.5846993697697301,-0.0446534888830463,0.05990265566816202,-0.014312032899024899,0.26125355212105494,0,0.0,0
1.7614999999999998,2.7407393889613703,2.8565171213448117,4.211319980258355,10.28716336783895,19.86091838199433,10.3550961131356,2.768206375472789,3.0569883491636056,0.5655110712086818,-0.034573915012574646,0.18044708594536624,0.6639187254804715,1.1709456251935841,1.243530508469827,0.22611087575720112,0.7764249698407321,0,0.0,0
1.8615,2.241371369566692,2.9474619415950034,5.56771369014396,11.78990176108793,24.47662967238515,11.664110247299302,3.007063327541466,2.744662563120415,0.18975150954167208,0.08842462738016878,0.627115723405742,0.9230750997436918,1.8521093461479785,1.6620817103805827,0.2879799561575378,0.4160212472796385,3,0.375,0
1.9615,2.3124019416902932,3.123398367229096,7.0627881009008675,13.5337952088984,20.943524567451572,8.051356972207106,3.4589907161197813,2.312970154954939,0.056969754319988644,0.2158046439492553,1.2730654562757928,1.2419636240515473,1.096818548848917,0.48641788877991504,0.48755060129952904,-0.047000202289548695,2,0.25,0
2.0615,3.725036896142733,5.225092639977559,6.658755523898246,10.710347775864761,12.86232247528594,4.319497588054249,3.0543956312432496,2.1689382094667744,0.8345138107274366,1.0207486475084395,0.9038226982759318,0.4779552589091536,-0.13955784561108442,-0.4091995676707586,0.20092069662009326,-0.12616205689619414,0,0.0,0
2.1615,6.41191335495602,8.325221861336445,11.209932298855398,18.56261533655729,18.373689716890723,9.19654357156566,4.998665318174139,5.115753463466528,2.9403284590046566,3.082360730129196,2.651311947533862,1.76881907079453,0.5868005874134152,0.39827043364180187,1.3508643471335133,1.8372314582741947,6,0.75,1
2.2615,6.186719387082677,9.443421166129426,12.085431260938812,18.92793440827134,19.560250670430392,11.309543775495936,6.6191195178848625,5.602973193135148,2.5968622427605488,3.8010458279473793,3.1158229530426627,1.8914545666628735,0.8915367669818898,1.0841964540282931,2.4172711578656503,2.2681918497491087,6,0.75,1
2.3615,3.866763730023365,6.875760443501048,6.931194906165819,7.979191314629237,14.433223548592396,8.213517774907173,5.007878965575385,3.500421007860123,1.0267281617924129,1.7334767615174902,0.842612300473367,-0.03888083439702924,0.16108276161047264,0.3462649870517494,0.9986538197202508,0.7177236166328465,2,0.25,0
2.4615,3.5775585788561375,2.662010546259173,4.737703028971267,6.775474927245958,12.26533460274945,4.310959997297193,2.0492283946142367,2.3103698830631063,1.052881894641108,-0.0704839679252867,0.3157263043669412,-0.2039492443605494,-0.18424292956195795,-0.5127443103163095,-0.3617977904374431,0.13395744137374385,0,0.0,0
2.5615,3.658124989441193,4.439716949642338,6.151122035591261,7.315766212148939,8.501323097751506,3.3543494178557838,1.9934772005731733,2.2113858159920343,0.8928471889542816,0.47968721702411343,0.6999323196115924,-0.12813479689458998,-0.5769788753232947,-0.7813062210697592,-0.5811430197499085,0.0497663967310211,0,0.0,0
2.6615,4.280378194828921,5.413420487539621,6.488354409498827,9.856629652042386,17.0731366222993,8.895495798724285,3.760441505401514,3.74988840404443,1.357450520234045,1.0087855190375656,0.7320962015175161,0.450331040256742,0.543597896689245,0.5188201128555133,0.4690245812157723,1.0130057627692513,0,0.0,0
2.7615,3.491629868651829,3.6952021465836298,5.078632348802332,9.723861400674185,20.330181335936924,10.041229907500203,3.779542418708667,3.8408713956268707,0.756945828989224,0.029660889453972727,0.29898737622138105,0.38773934340597316,1.092323602656837,1.1467763513762743,0.6878578778926385,1.0986168879845473,1,0.125,0
2.8615,1.8477260333473542,3.4971133008043838,3.3273740293862755,5.563115702246142,14.487095763971864,6.277724755623236,2.8194333623279033,2.3439208995356013,-0.2538897269815022,-0.023765391639552925,-0.2681520533785757,-0.714020706480357,0.046256392132158555,-0.01586034262177107,0.18770815736019938,0.19303870257999795,0,0.0,0
2.9615,1.6402334454531189,4.472077306819117,4.432837787791254,3.4269060544155705,7.538945301689927,4.4660695643979675,3.1249920415669084,2.1334757861249285,-0.3489073125420438,0.8020439280915146,0.08212847949442555,-0.979436683685363,-0.7560772615738037,-0.5024647755255593,0.3639339189795636,0.12311043591254452,0,0.0,0
3.0615,2.79538570767782,6.352875317185583,8.40111653471959,9.292900118928435,10.722838640519303,5.176937900516555,3.1889904051000832,2.9395874967764786,0.2076809422054252,1.8144256625919735,1.5236618319067134,-0.09405553287903055,-0.5277263695963893,-0.32817146396651575,0.19460337458336055,0.42311878377681134,1,0.125,0
3.1615,3.7401599888144257,6.840681966303603,9.308043539001623,11.57955085282361,12.93820236286906,6.007172474071071,3.3163150641067087,3.2058610717451006,1.022691757464118,2.0600084208947624,1.7581880670586174,0.47870209064273317,-0.08226839361223341,-0.05695586599428865,0.2902552139799894,0.6377864579388095,2,0.25,0
3.2615,3.442554369580599,6.878386795333552,7.835737357510781,8.16226966277472,9.066432512772172,4.994033803744704,2.9872300165528434,2.470916206996292,0.835160619973673,1.9445800697473397,1.0788562265712769,-0.10535317804374993,-0.5202068691667002,-0.2235380741082647,0.23007193664585757,0.2551538829410184,2,0.25,0
3.3615,2.782085740816487,6.0793513142233175,5.732590587050883,3.97490626630396,5.609824459657936,3.9949065930598304,2.7388667060444196,1.8949540630488009,0.43704388008410133,1.4174737342617505,0.16838554749082565,-0.8017331187647815,-0.9604948165900358,-0.4239265215890791,0.11210095989589287,-0.1404279176097097,0,0.0,0
3.4615,1.9889186676638746,2.9009065479997598,3.3235706552633566,5.906594925003835,13.555561180088892,6.932023152249872,2.545754585400595,1.4667504081943394,-0.09544060765076341,0.08066332172727671,-0.3582954714614646,-0.6478465425666678,-0.1507879143386873,0.24519546434499329,-0.13266943935048114,-0.4725510627524028,0,0.0,0
3.5615,2.0475667205473207,2.4522753848706995,3.6738008362705417,9.99631224369995,18.180161926991342,8.289841170754151,2.700590229120178,1.5542802394296515,-0.08949958870975293,-0.20457037319348706,-0.1547328034434689,0.10374994502067679,0.6357578222589383,0.6128044415800907,-0.1601239038099329,-0.4038419407509432,0,0.0,0
3.6615,2.044747304647533,2.064283247381482,2.841300749429669,9.06994414874242,15.96005610548848,8.969043624080463,3.02017775510194,1.5311994727474103,-0.15120650092334403,-0.4920163481357044,-0.43214627522504867,-0.07155763287396243,0.3916450698255493,0.810872346169759,0.020915004608702187,-0.48111009583928444,0,0.0,0
3.7615,1.3742682135133542,1.8416750257920065,2.6792983572138622,10.390240002193089,14.252727270308503,8.295300197297339,2.646507919358642,1.9951989672991306,-0.6207307938605744,-0.635704026673543,-0.46527833841699034,0.17467194947957992,0.22961063632361522,0.649151546938872,-0.14606901209398493,-0.3092972351420663,0,0.0,0
3.8615,1.3662904447051718,2.124241629974182,2.346657218424569,11.107476436958143,13.025699065792017,5.074043564952299,1.8280812642338735,1.9288728860765882,-0.5762796412648967,-0.42193327597845953,-0.5661160961031034,0.5549005833925232,0.07646640214092645,-0.2739541878397898,-0.6484025849982644,-0.32528103249145857,0,0.0,0
3.9615,2.1982727815768097,4.148474609633967,4.142798561584061,8.398248367868836,10.742861917355912,4.696558619301012,2.073594191692855,1.726748010430211,0.01878423812242713,0.6282962924147276,0.042105734661659254,0.2552420172697218,-0.15415798294263192,-0.3350716076427699,-0.4863699322912251,-0.3261169621229279,0,0.0,0
4.0615,2.345862890948696,4.438637119938164,4.135719335197096,8.37424445321251,9.581504211418887,4.81923004647924,2.3053170613857596,2.06890246810822,0.13826352244421616,0.8088156180416753,-0.0003695996736795365,0.07320985588717027,-0.4607013041142618,-0.2631345495208297,-0.25706272063716,-0.026206957372355552,0,0.0,0
4.1615,1.6977173786504502,3.05912972572925,2.6492819382381105,6.268089086351101,9.350305243462765,3.243472221071854,1.7771811754700348,1.8465472315555809,-0.36039444574142904,0.025000876905610783,-0.5744901404224025,-0.4854859993308254,-0.5206900463305011,-0.6917731431836082,-0.6536543165738733,-0.29211297128211106,0,0.0,0
4.2615,1.6300700439304405,3.5055988069286506,3.7841400818705133,9.913987670657942,10.775961886357257,4.127010542090282,2.104427658800801,2.317493211575689,-0.4563780093400914,0.21008395077060288,-0.14189971726962658,0.1358346743854557,-0.2903850510830445,-0.5917801728323955,-0.5606788155741033,-0.11173325446826862,0,0.0,0
4.3614999999999995,1.7995231707470771,3.197861236843451,3.1997490841321583,10.772570684680593,12.386925817067429,6.430543984051644,2.8979193282271116,2.3692187739169497,-0.31895782270120265,0.04474802140076953,-0.4574432513661296,0.4134067847113539,-0.06334058508596034,0.04140671284022959,0.06789331260220628,0.025799619087731155,0,0.0,0
4.4615,2.113912562802373,3.4292697591684105,2.7445226101106783,7.056380049249328,15.017607643670734,9.940797219191662,3.7920107377487398,2.2529009941983253,-0.007022377399868425,0.2433108050515853,-0.5825650103359118,-0.21637856650389067,0.4732347299000565,1.2321038961689716,0.8939153529926055,0.01744573292902725,0,0.0,0
4.5615,3.221171077413258,5.114180237814472,5.675271933928903,6.933827788394501,14.391793073524433,10.324666955909404,3.375791341042209,2.746365591411065,0.8034731150485315,1.1216728800144784,0.55564029873007,-0.17921120602599663,0.3673436735097945,1.395945650223579,0.3807082515065737,0.3882715777997281,0,0.0,0
4.6615,3.991944501440313,6.077130554456292,7.2419227306792795,8.501658884721754,12.162353270306353,8.662909959583946,4.669520142303753,3.723854048306336,1.1337082560179252,1.5170693664694008,1.3000861807119442,0.07443821268160042,-0.23628088240128162,0.6122411696191393,0.9182406965922099,0.9654019549988513,2,0.25,0
4.7615,4.089970810140744,6.322779310503409,6.932299041768489,7.2355022710840675,10.28049565979692,7.441152945040093,5.192497040911729,4.270463641705185,0.8160618719240154,1.671948993206059,1.109136835307369,-0.2969599614355248,-0.6322279865725984,0.20412182152467384,1.4810229558277879,1.1840714549643685,2,0.25,0
4.8614999999999995,3.792813079068905,4.739738994769473,5.45572099275444,4.488368504445473,8.735296088555499,6.334305271644432,3.7418916841984697,4.053035441228175,0.8745302156817183,0.7710361601457276,0.4224481591504005,-0.7163285317010651,-0.6776201346416724,0.10881380319168278,0.6316486736970481,1.1700144788767288,1,0.125,0
4.9615,4.356076310574729,5.634029410328488,5.323402457076534,6.6518905280550475,10.264771531959735,7.66375138043306,3.6377126076614625,3.9336008814555705,1.5388780178817365,1.1804604446277067,0.4539434867282205,-0.36214834382968825,-0.3612513333143618,0.5020786724020815,0.6626145556257846,1.2028300934361664,0,0.0,0
5.0615,3.747323857314698,5.667732783580584,5.453483181891443,8.24274969310687,11.074945799192749,7.947573164581882,3.1500969181932854,2.935658395891534,0.7233483217898844,1.1219133449006966,0.4882973362560677,0.018872786400114912,-0.1836328350579562,0.44081623897411554,0.26731668255156565,0.2458266146590483,0,0.0,0
5.1615,2.0837366039869947,4.198576131854009,6.421902262708992,10.58784479378655,10.695410219993567,7.673513528936284,2.0416647343280996,1.468804014661144,-0.25549952949157323,0.3428525556587942,0.645210535019838,0.5057091478603608,-0.29389629197708017,0.41127468004100665,-0.4066145124466272,-0.45404315051806177,0,0.0,0
5.2615,3.746888574415214,6.650835432886649,9.615479461318163,16.70578959734029,14.985560433661293,8.088637481322204,2.209988042765703,2.859125883221133,1.0525023879431412,1.784011670734271,2.090563972641766,1.5802065685749112,0.2946679884352006,0.6260624248882717,-0.27867298003096225,0.39329407896506763,3,0.375,0
5.3614999999999995,3.7696815724166672,6.215773724687485,8.881625556988006,15.480914449752053,15.065541178775941,7.021669281714651,2.382587568107334,3.2255870192189864,1.059101084550678,1.458263456038014,1.6820849949522978,1.2119139477198657,0.5101092110275508,0.2604924692076204,-0.1400245460842804,0.6467388819596401,2,0.25,0
5.4615,3.328905436307936,4.921133558558605,6.348946182157092,6.871214188405078,9.438633353121428,4.906178652395363,2.483036511883136,2.9858971882395386,0.6198689322599443,0.8880939025443801,0.7116590681388277,-0.28503560440721926,-0.2574385932842643,-0.2673748693804183,-0.07836081574631555,0.4182529345030387,0,0.0,0
5.5615,3.2926775140731643,6.806317899689339,6.930960747115751,4.6811991566484386,9.188410603651203,5.582758768646016,3.306305695822413,3.107683601676077,0.5903486889600112,2.2340111285939837,1.140379547795479,-0.6886022344852768,-0.4414453657590577,-0.24270648077070575,0.39231748713445813,0.5753606399333056,1,0.125,0
5.6615,3.9258805308574116,6.665499519832048,7.659446146315424,10.105244449799198,13.522332110537635,8.064022187414423,5.171916321028062,4.31232358626936,1.0861649233023067,2.1754816919150666,1.513588662844206,0.2570887171715917,0.09701037401418362,0.41259107277112184,1.4851833549608373,1.3911761072811533,4,0.5,1
5.7615,3.5186250794525695,4.160618748820401,6.945685034138506,10.74645507694054,12.232032058165048,6.850393337852971,5.00622857265516,4.23485003515212,0.40954776524386083,0.6562406861173762,1.186818415926088,0.530846175920235,-0.20848477460468398,-0.01574450096852299,1.3820758030007039,1.2796484604346463,2,0.25,0
5.8614999999999995,1.5652644652515446,2.781948238582289,5.055617997602461,7.339707607242496,6.116857192659684,3.6950604226068307,2.655207343013579,2.4090905022903097,-0.7918004131832013,-0.013490107389881649,0.3183661569898939,-0.140782679884932,-0.8633518296597807,-0.5905591636174029,0.03863256603763871,0.09780309764309132,0,0.0,0
5.9615,1.9171625420511507,2.9817086338417544,4.21923531777711,9.188232871747081,9.76937242684108,3.888788239226441,1.842949007624843,1.6805402459172678,-0.41825216364985324,0.17373763927764072,-0.11374847072245632,0.13399934483403014,-0.4830611220543919,-0.4808502258315418,-0.4594682645489875,-0.43529826993145676,0,0.0,0
6.0615,3.0875958393719674,3.4073835644662207,5.008961816295549,11.853196435327604,12.717314441450899,5.469418438755683,3.3595667660668855,3.621637906616325,0.4464393398268666,0.4305389086686499,0.1333056314806133,0.7709978085132824,-0.09043104871676855,-0.1820381048534204,0.22413278645233103,0.6372514833650723,1,0.125,0
6.1615,4.481379735779576,4.824973139183846,6.261932180745504,13.493516484550979,17.923351972472418,7.183546870331492,3.9311965890308818,4.9311146249752,1.7127798838321844,1.1261305059299307,0.8418015627176177,1.1295871938128172,0.49973917836329873,0.3016331317388126,0.6659326281020828,1.987908537539462,2,0.25,0
6.2615,3.5700944326985464,4.65041706265814,5.687869180964057,11.02144160402682,15.829999200132644,6.232288106096838,3.10689682573831,3.8860164244800894,0.6364432676431229,0.9772328431166624,0.8019755741465147,0.45997013377964135,-0.01119851799947852,0.03212476857803932,0.1937676183725381,1.0857992925350566,0,0.0,0
6.3614999999999995,1.6681274743855792,2.730369198837085,3.8129577045544,8.280719538197667,13.242586469715366,6.451809214975204,3.499284302477661,2.39442867399385,-0.4812174866705724,-0.05085667642316197,-0.033360535870623556,0.04544860165534589,-0.13829796470023303,0.014241666825531456,0.4890324478550375,0.09489552551556762,0,0.0,0
6.4615,2.1482005315240347,2.4309195978605267,3.4694559810271723,8.184687624007296,13.353467549104947,6.447511105048804,3.8396457506697272,2.176328217416884,-0.121927825637084,-0.2241538709598748,-0.28115667861312815,0.05166742727967817,-0.033859121346606194,-0.02590353920818399,0.7078347610084827,-0.08491123393897114,0,0.0,0
6.5615,2.9739406303596314,2.8818203676200516,5.190451174687072,6.882942156409681,4.980436681237865,4.149142929203821,3.2216234681513694,2.575122576495617,0.5174459391858701,0.0390421517737702,0.27790845160332345,-0.27706527705744727,-1.086496036005069,-0.5538353333526086,0.30154023320431916,0.24670584044541777,0,0.0,0
6.6615,2.7657542975794454,2.697967045086578,5.076484486225554,5.60960550094326,2.965868101415595,3.735867185414318,3.565421453253483,2.898055998570402,0.3923431791942613,-0.07914521058312395,0.3056327776954855,-0.6016885823401708,-1.3341514039913387,-0.5989561145295353,0.5955186824746377,0.647966634795726,0,0.0,0
6.7615,3.359574655016556,4.981001791616217,6.40357888630917,4.168330240448252,5.057961498907557,3.2008000955503966,3.260604061539496,2.884137461002014,0.5387411299834914,0.7402873906235211,0.919069346230557,-0.7107082308984606,-1.031271732279823,-0.8216222857064072,0.1865751336774139,0.5207550218282265,0,0.0,0
6.8614999999999995,3.4818513801186204,4.995367038904928,6.286226093044735,3.7542071146947813,6.134428442185514,1.7161521251390248,1.512979311706102,2.2400345813907,0.681356371171135,0.7206795490124344,0.7290126449179307,-0.852823572431829,-0.8595777551597847,-1.1084779036116073,-0.8607942031646938,-0.10069198823553985,0,0.0,0
6.9615,2.4309833638440703,3.376420465789252,3.9405197333521,6.166110842231222,5.601177022422853,3.28249832965506,1.4433344815605484,1.2787486973239057,0.2546685759761532,0.28831563273209637,-0.040098677884815935,-0.5842310288790147,-0.9733594762355042,-0.6601768270841256,-0.7953825712505074,-0.5327969044755672,0,0.0,0
7.0615,2.8412438936786986,3.4154745376792697,3.7092695295221954,6.731854719554786,8.399437807952676,5.157694079684894,2.142897144054784,1.9111244140744323,0.5144076182727507,0.3878947557325648,-0.0320710160555807,-0.40496294947676686,-0.7093313081922449,-0.2536487905588584,-0.3930174364162996,-0.13235202551433317,0,0.0,0
7.1615,3.0920575714973357,3.2958969351724963,4.26330667940022,6.454660617024978,10.441370853619684,6.240049604332816,2.3607866434206777,2.223906547855831,0.599286698991063,0.027706808052900017,-0.009074592565578667,-0.42187829511813035,-0.46111240749313415,0.05381360382555893,-0.21834289206634885,0.09594032651166032,0,0.0,0
7.2615,2.5627842809273194,3.19213065132808,3.961364454942803,5.901677517217032,10.576292905311606,8.05382340142485,2.326368154228991,2.0067683662753986,0.1925240236356121,-0.14193940704104338,-0.2568661948170086,-0.5684039760454942,-0.3936825669803517,0.6404503676413708,-0.19843783749782176,-0.09826343882954143,0,0.0,0
7.3614999999999995,3.210331950764302,4.151406716808104,5.543148394248161,6.14870347854702,13.049099419962795,8.995734477981063,2.8507585720277957,2.200810763131382,0.6318003034389712,0.5363095360414946,0.3118895874757774,-0.5588841245293906,0.009217003160514431,0.9216132639941881,0.14448541362136752,-0.04125179106347589,0,0.0,0
7.4615,3.3089122290186475,4.225869073679604,6.506355585863568,7.349693656291202,15.567155317740735,8.141341669151107,3.5890816007450996,2.7517664881085073,0.7047245726675443,0.6525820721184671,0.9864930738483758,-0.16449982949956862,0.2320911570532283,0.5320114218343425,0.5915776684938576,0.2850258660684899,0,0.0,0
7.5615,2.2679408210781125,2.20046613789945,4.156725933348687,5.185983788139082,12.651545357246231,6.9679669484750315,3.935975339595524,3.0624907958937193,0.06177985280352551,-0.3314755947829646,-0.07168126966725843,-0.5405129655979982,-0.20259563692307853,0.1547028394746215,0.8304313297384208,0.5814305108917873,0,0.0,0
7.6615,2.5093951327745114,2.7436319815675962,5.11257248480624,7.781742090467234,13.364552396703377,6.4242014215653835,3.1895933118878674,2.3952258024954136,0.21437770438546228,-0.026985318891054537,0.2877719356281169,-0.19305460088471205,0.054543785828380334,0.14233838711607472,0.30064629867594733,0.0996206393047284,0,0.0,0
7.7615,2.658030260807792,3.0425239511921887,6.607397552458219,11.085971239898956,19.39183578827245,11.084334280136671,3.2174696980241486,2.108574353330117,0.2645764452317179,-0.043277127519016335,1.0635316789956735,0.5687279243443828,0.9875319680823654,1.1980725949656834,0.29119382789954207,-0.13759696292442453,0,0.0,0
7.8614999999999995,2.7264062832562193,2.4090948942972163,4.886093453171171,9.665419898515045,16.13801076306682,10.860549028696465,3.583546189003646,2.4652389469182676,0.3733079079505591,-0.3977589622467433,0.1698092091840754,0.14143141061771355,0.3332992047168851,1.073033009854897,0.6200746677349332,0.1689448557428752,0,0.0,0
7.9615,2.750067922969265,2.368566155136197,2.1291351128008946,5.881918990642653,7.6840799991023525,6.2091544046865526,3.319816631880809,2.6188782045565437,0.3687423072901614,-0.27295551987056016,-0.6299049552383731,-0.5165978704004549,-0.717215049373951,0.07300699894985056,0.4289267744633225,0.23450398029481975,0,0.0,0
8.061499999999999,3.2004381826118986,2.8594675270920105,2.7599578482467573,4.0364609810700465,10.814706711738555,6.972955033651432,4.151221632464304,3.7720310308042015,0.7416435514572028,0.001154118505426741,-0.5425001839687668,-0.7413272369457343,-0.2808005859063596,0.3497815665127446,0.9051540009383217,1.0364951103210733,0,0.0,0
8.1615,2.849364360772199,2.306998512020834,2.6129387180991506,3.8693188546438226,11.879620456926894,5.348073840270299,3.4464385347410373,3.436551626572641,0.461465398685516,-0.3876284533679837,-0.6054199058154047,-0.8069598612296853,-0.09007022939490955,-0.30568607685292276,0.22018957272275208,0.6853306944272107,0,0.0,0
8.261500000000002,2.2928793878302103,3.325960974799975,3.6237881693495444,6.113100559038118,13.46190280240504,6.645234265048689,2.439538701702647,2.536672950244845,0.008649436234189302,0.029879257440308997,-0.21522189450668652,-0.3798965842804819,-0.0036520424447512344,-0.12172527612575099,-0.2554677484762644,0.08531040439296969,0,0.0,0
8.3615,2.744842237507672,3.7045546645372553,4.131286474780249,6.339782165149091,12.200043201326332,6.851314471819724,2.8662877377945715,2.5311765804128967,0.2968753969600679,0.4526672578625006,0.0674488481000793,-0.4673520067331482,-0.2513506493059396,0.05265270134077207,0.1273545228575216,0.19251094833313734,0,0.0,0
8.461500000000001,2.2113016505178686,1.9484990202951578,2.7720958879769664,3.630527278174458,5.065826650695843,3.090035149294539,2.387816265211522,1.5388428307136348,-0.25526551431705136,-0.5770968288938758,-0.5491991857848159,-1.0936827614888065,-1.039199870369098,-0.8250885061655242,-0.19113292514981264,-0.4780072534452028,0,0.0,0
8.561499999999999,1.216707212147719,1.6165653276338325,1.6496986488960568,2.0609977448208037,12.011780449302826,8.31548064044523,1.8157464071591927,1.0854110618695567,-0.8624014517208474,-0.7562787362522491,-1.013012700686995,-1.2306795324910498,-0.3535933479454318,0.338407601483689,-0.6605188079087491,-0.7289999874598894,0,0.0,0
8.6615,2.4133026975108725,3.0290391692036414,2.5834858108720935,2.7985245843179385,14.248164049902167,9.03759039134565,1.347706119226969,1.2996615461001897,-0.2922283120242776,-0.054238712940664,-0.7435648289287252,-1.07109361567956,0.14178894750204818,0.7557869171690501,-0.8752992171963266,-0.5700155727998673,0,0.0,0
8.761500000000002,2.8893298427414944,3.2191561576320744,4.479958140685603,9.058183694078497,11.231269691020035,5.612281173595362,2.908605203784837,2.6346693751436976,0.2618935061405843,0.09103757868079677,0.03085927850733012,0.026543083234818497,-0.19621075502325147,-0.08997932153405692,0.04667870659426923,0.2084294065868354,0,0.0,0
8.8615,2.9064646749554375,2.4033406977676246,4.036052342930287,10.49042437094452,15.107923558798543,6.599101674658755,3.3597513304178945,3.6573537373020675,0.4237753903871105,-0.25577715062074174,-0.08847911397203999,0.46540161167562466,0.21649540698116213,0.20816277427093768,0.44582130223906413,0.946756733930411,0,0.0,0
8.961500000000001,2.854896882775261,2.6628770544204,3.644727239498977,7.335208307429013,14.769565747567686,6.128462728535699,2.4748562485657613,3.0727334993447197,0.3535499403937279,-0.1301134427546042,-0.24123079877333098,-0.2527993158041462,0.16404244683962,0.007510146350126601,-0.13644377821940679,0.4207840835636679,0,0.0,0
9.061499999999999,2.0948487223143286,3.3323122677336503,4.298077063847671,5.60168739722507,9.079109614877302,4.275886309266622,1.8372202808020734,1.945665570705153,-0.11371992361579615,0.19788312121307716,0.007907955285313436,-0.542421758767318,-0.46300226946734563,-0.4229050542541055,-0.5350700496060365,-0.17186866758017838,0,0.0,0
9.1615,1.9020651408228322,3.2305210819126358,4.707048056304089,5.62143486466814,8.1693041515119,4.035749375670711,1.7322317171570711,1.9792773528520076,-0.3039424600462256,0.160797342878694,0.2821284149574014,-0.5413060161030837,-0.6201994399278259,-0.45334737502638534,-0.6093548765966317,-0.2270561436712787,0,0.0,0
9.261500000000002,3.4101862704960593,4.607268945745331,7.579255180415313,9.71906416753687,11.923944410409208,6.480200900974917,2.9950487831143193,3.5367638817258866,0.6956314524495992,0.7956107844218018,1.465518057798238,0.2648646507226162,-0.16380454115855256,0.08661203604583616,0.14641693886377707,0.6433440863065901,1,0.125,0
9.3615,3.461356957885647,4.472633431048812,7.007408220460037,9.354171037201901,13.673695717363557,7.042863830099417,3.7093250381765372,3.869916939383347,0.6728624001374491,0.52572211715612,0.9647256273189295,0.18198864009569388,0.11569661574562141,0.3581898093849841,0.6078824383834031,0.8554141938979208,0,0.0,0
9.461500000000001,2.648712672365571,4.400668181130789,5.778658666676519,7.728680037706949,14.110619909060905,8.616743461192456,3.488714738048649,2.985450217960346,-6.155749417134148e-05,0.5627028649040112,0.38426635352025473,-0.0750053862042997,0.10710086646715027,0.6442446456490107,0.39165621808512463,0.2563619412517776,0,0.0,0
9.561499999999999,2.402317854083287,4.4531878671589125,6.175979909147308,9.510628382033987,12.251394102113592,8.468542828713113,2.573947407222089,2.1393459293847874,-0.06578703733246245,0.7436773936579095,0.736450181430487,0.275726442061047,-0.18524165575123103,0.521180623924054,-0.14956953500896905,-0.3033382146158328,0,0.0,0
9.6615,1.9793306913185935,3.1114934604051876,4.630070322387014,8.60160833838244,12.449263915128682,6.735692040418412,3.073051098757923,1.2109105744638173,-0.1642814768875535,0.16223019343179737,0.35793092503846496,0.12012122351072545,-0.04385901316973932,0.2573345115009945,0.2010738202364211,-0.7070831925615461,0,0.0,0
9.761500000000002,2.205368120902722,3.177989845330526,3.893766935928428,6.067229563582185,13.058557690924392,7.267222905891396,3.521130578096545,1.549450397908835,-0.043142293888296095,0.21221614149131804,0.028549250207287265,-0.32485541351810227,0.08591244859154083,0.4776323232512645,0.6259212252319686,-0.44046021812240255,0,0.0,0
9.8615,1.8678978582222423,2.7848535326897954,4.3000565848198935,11.692399346655064,8.952817710679161,4.660443303567943,2.7315735681826148,2.2605005712310042,-0.31893167530450756,-0.048025515455635014,0.047079453326876866,0.36092457256948274,-0.5967395992761488,-0.3526388070356775,0.0946927313522598,-0.03603472173034425,0,0.0,0
9.961500000000001,3.1296613581280366,3.5099730405398564,9.970351700733303,22.223931673972352,23.35868783785267,12.80101180269272,4.218521708557285,3.6819979110909387,0.341718257787395,0.2579735787742146,1.7984880841290147,2.720912784801339,0.8017160529094474,1.2726407731378315,0.5612821973758509,0.8505653561176088,4,0.5,1
10.061499999999999,4.247222826288801,3.838892172102529,10.768582822470373,20.355358190349545,25.043480925194324,14.729118802474007,4.986957964587288,4.465638585418444,1.2920868566203163,0.44971305385622257,1.9732741358582584,1.8610472682640467,1.1736027786729297,2.2393688746283114,1.04013370642046,1.4285329446049186,6,0.75,1
10.1615,3.140445491074951,2.726907023886352,6.245746130983466,11.526035679023593,16.943586150687718,9.496953948353267,3.463046908079473,3.313979154460182,0.2441130587926773,-0.22300671311271317,0.377962870871225,0.4407897066245574,0.3953402667067317,0.9447243641894326,0.1403485828505186,0.47851306410588146,0,0.0,0
10.261500000000002,0.7948831481220404,2.0407852051726616,4.598588509058845,11.015980285125785,15.225220549626156,7.22547160395595,2.40209391147988,1.666939679509612,-1.007472977711353,-0.5585644820142721,0.2672900334689945,0.7460657127191028,0.27044200646178573,0.3916684388628074,-0.4927508257867786,-0.2824889466380272,0,0.0,0
10.3615,1.393236426370189,2.172680632600467,4.735052098596038,11.538509807148529,13.43029326518955,5.34180540101344,2.6853454544417206,1.7785061139743168,-0.6565848876694862,-0.4452260959460594,0.34606003568472404,0.623117973909384,0.010617961291566174,-0.2280239588037164,-0.18295145622050094,-0.15268139573479428,0,0.0,0
10.461500000000001,1.6990754663652516,1.4962282952316441,3.6567755671444173,10.915706796295115,13.682606097509888,6.312928884899423,2.0493013028223306,1.5063368767612948,-0.3491813178906268,-0.7069804949687958,-0.13073770097382448,0.33071596475818316,-0.007718132487681149,0.09030015136921409,-0.3830759134594766,-0.2745921102524537,0,0.0,0
10.561499999999999,2.149444128839471,2.803254926514111,3.8940624728385425,7.359762828931791,13.018771175667002,7.656009829870069,2.0607830652049564,1.3436452340604366,-0.090448223227863,-0.23676427894566365,0.03464971236238611,-0.04998079631223388,0.06825834975665425,0.6320005209636944,-0.37931356645365744,-0.48122088718922185,0,0.0,0
10.6615,2.407282042733057,3.548597424238356,6.049546832952254,12.780735132373152,12.877076574556673,5.921107549815899,1.8603656494934875,1.2186907845377968,0.1195196112348868,0.28617014838135196,0.8113992568470764,0.80431124821201,0.05701678990518293,0.007306336586880858,-0.5814461372176849,-0.6367878996771763,1,0.125,0
10.761500000000002,2.483500805040982,3.6321808925857524,6.876513177751753,12.328328653578282,15.137863699705907,7.269528252138415,1.3056183491559428,1.3141717806625695,0.12118643533511538,0.41009944878445614,1.1343588295066305,0.5296300348127553,0.3385378428868468,0.30921953693588544,-0.9675442743260452,-0.6677918001646665,1,0.125,0
10.8615,2.4465442761407328,3.1474679876232314,6.300933029379217,8.43897034670186,16.739711613978926,9.87833347807183,2.1632392474310667,1.5179270843392854,0.10186519250111789,0.09817132814428918,0.8622135270287014,-0.033610998399139724,0.5694203821672597,1.0957698101467555,-0.4716657690763328,-0.5781783617009498,0,0.0,0
10.961500000000001,2.0175102945999868,1.7037606481041256,6.157247388940822,15.799911163267023,30.937485454460425,15.398799291394324,3.9860082239370236,1.4984017725319487,-0.1804474020489039,-0.681036078168081,0.582815517276532,1.1137234431723306,1.7685934491959179,2.0271657467365514,0.6890337169964935,-0.508816049515385,3,0.375,0
11.061499999999999,2.6466984448810913,3.747108912021013,10.958163297386317,24.31844551828735,41.53171934666751,17.493944932319604,4.289437183807022,2.5529362210508797,0.20334360263552753,-0.05524856135896608,1.7770326263412852,2.515533419786451,3.5394199062981886,2.7127824865901378,0.851050880806202,0.04165798689118271,4,0.5,1
11.1615,3.3560007369668523,4.558846765348529,11.213867078351322,21.04523180335692,31.169951505720377,11.791060048740823,3.2971193939613683,2.6951688316765883,0.6021413434052237,0.5455543492409566,2.00727065387312,1.7251762673033155,1.7691988618725691,1.1310320895691528,0.10907404259654899,0.17882981101247825,4,0.5,1
11.261500000000002,2.937004675059675,3.05892133681834,6.087919108335314,9.386087611901454,16.28000559069711,6.070505368195538,3.592473058232013,1.5666435560574903,0.18271405956657208,-0.15417097872389676,0.6643099221007899,0.20941425809067105,0.2773567552805703,-0.11134512488272805,0.31658818303816516,-0.39938022689232255,0,0.0,0
11.3615,2.6068656746723113,3.0814755349721095,4.345360689227878,7.8212047548321815,17.84352211257499,6.8771005482842495,4.8110675057340515,2.879823382152622,0.18861154731526933,0.014898529264500136,0.1708316074609322,-0.20896152311230792,0.6882288420985305,0.06162630627786747,1.3343147498214867,0.314724082631418,1,0.125,0
11.461500000000001,2.9424162995579146,3.228309119656068,3.843962516789323,7.607578563764368,14.652271019147243,8.350375482434771,4.266745782403915,3.111506073002423,0.5942939460133044,0.2206547252536413,-0.00701796596983316,-0.1517583396729406,0.30144387818694723,0.5766204685990083,0.9199243136957164,0.561269409321222,0,0.0,0
11.561499999999999,3.564943688624572,4.472163054706186,8.588546327325028,17.99368121303755,19.796838671270454,10.346045037581092,3.35234059322389,2.919764957416554,1.0919381295465123,0.8429072250336561,1.5183337271082324,1.9364839121148034,0.909169485776004,1.179567086387195,0.34534760132537473,0.5458575160906317,2,0.25,0
11.6615,3.5488305868186267,5.397347701323288,9.37929370249796,18.6519360263109,18.89378491275742,9.007005856193883,4.0683022916900375,3.07064708038353,0.9542634218345617,1.5278263142272763,2.098632532379634,2.1950319459346095,0.6920077557346541,0.736780883614649,0.8017413452326346,0.6079319014442514,2,0.25,0
11.761500000000002,2.906080771190379,6.608503331218421,7.477058279009011,11.581956348895673,11.98119414505808,5.0744674305060125,3.1739732787981083,2.397968293000812,0.49165974246631927,1.9942183386672112,1.3241338969551395,0.7550829016734998,-0.19134968193689222,-0.17133931977899602,0.11536599424542829,0.060207328571668925,2,0.25,0
11.8615,2.726772093879653,6.465257712089195,7.362405196764116,9.546452822408618,14.414488362690618,5.726560982573898,1.8818824099213125,2.5288851351544324,0.4379516306973744,1.612272554207163,1.192039949865119,0.17923965015606286,0.24144821716697698,-0.05149159253996751,-0.5235516570975532,0.12496613739812208,1,0.125,0
11.961500000000001,4.166348279238992,5.252657375982485,6.393571932577993,8.677519048433927,13.719955842672654,6.20628986364058,3.376534040552754,4.1515763070570255,1.150127868476924,1.1136933538413274,1.0049178491278934,0.1653321025823896,0.2326468669026518,-0.0036117585724391647,0.3843146182642127,1.1926498822798772,1,0.125,0
12.061499999999999,3.8549277784092673,4.8613452989241575,9.658601069842536,12.21560658059956,17.154861593539376,6.531364679478274,3.1205629775419657,3.7142321254681145,0.5522388748296124,1.1039930114710566,2.028935538798256,0.9799510866206039,0.5621123856226238,0.07133333243299976,-0.02522949732391415,0.5835708857354794,2,0.25,0
12.1615,2.2897116980799614,6.527733401130665,10.547305495791361,11.118535891722969,15.320968426394552,5.754629627529277,0.7345848372839476,1.0816793329693788,-0.3515850034149345,1.495602243069913,2.4475690236882057,0.5280501331530059,0.09547480355593052,-0.07577484620300218,-1.2632196556642188,-0.796909244054362,1,0.125,0
12.261500000000002,2.532607385883383,6.893475153762883,7.607201998356527,9.103754267426279,10.27715408771646,8.667049428811005,2.1395662506968205,1.3127511619305086,-0.03045914003502273,1.9003387751381886,1.474309004308963,0.14911060242689306,-0.3666820422066842,0.4666961807492514,-0.4792924876408722,-0.5734687164747843,2,0.25,0
12.3615,2.828749336808339,5.185939754555459,6.884997912845386,10.192584988419691,11.925613384613367,9.335772597451053,2.627164305130143,1.6434760761539204,0.27812518874844455,1.3795004273186515,1.0918991295699114,0.502641464479541,-0.00161464096429541,0.7799855730546698,-0.0789342515934562,-0.34816618346686723,0,0.0,0
12.461500000000001,2.649043327091529,4.1907601830354295,5.803432191151679,9.000352359686543,15.857020923229316,6.159475501685132,1.7187113230192357,1.6409970291863278,0.051276160817579644,0.4639649183193738,0.44681203376538675,0.25380608857620535,0.45499858350384004,0.118305447910866,-0.810494144607062,-0.40822609370169116,0,0.0,0
12.561499999999999,2.6372382183819085,2.831832616500748,4.135886552004805,7.541952856757127,14.626190666878113,4.679565978796891,0.9973858884644764,1.6737401530953135,0.09763842184421558,-0.11831418434334502,0.11377247800450963,0.004317360523688665,0.14228823448211073,-0.34244361372234794,-1.113090550434545,-0.36551426520670666,0,0.0,0
12.6615,4.102737217568706,3.471457628954012,4.62102485480441,14.150256397197692,11.399323322204237,2.26511710935809,1.2375153039601545,2.269834233219455,1.4214132597278117,0.3614595889789411,0.40439451038075624,1.2550101859077076,-0.11262569382839892,-0.95557018691687,-0.885771829503415,0.0915941377895314,1,0.125,0
12.761500000000002,3.6110779830471995,2.8229164144480605,4.756946618086519,14.834544133946906,12.821711645067959,3.9832081968008684,1.9522347420033768,2.13060007265207,0.7864123576565015,-0.0722032293878497,0.42873671672887526,1.5236749178535915,0.1567553162055641,-0.642054403256198,-0.462731134797745,-0.10835213521293742,1,0.125,0
12.8615,1.650469605055684,1.601541513433991,5.637858603034119,14.354253978238196,18.024198232675353,6.70332378831353,2.145437328572576,1.5796398479915608,-0.574255900666498,-0.7943442195563978,0.8069971999854263,1.461175653992335,0.7836510895809028,0.2080315651478982,-0.3719132458031529,-0.4514085443248076,1,0.125,0
12.961500000000001,1.8170996654625562,2.7564423865763117,5.064749839660708,14.364101506859313,16.58499759101957,7.141310361889133,2.3660072789921873,2.4971878928086846,-0.304426335198429,-0.3789583067156637,0.5021635721924048,1.2904380227324506,0.29473559174826097,0.4199364943191181,-0.27485718476024795,0.12786750376407985,1,0.125,0
13.061499999999999,1.7292944016879117,2.996076336154377,4.648220444288218,12.527629225791637,4.772098194012444,5.3094184669376,2.1513949878893377,2.3685318172850716,-0.47326569718189115,-0.06979012255772518,0.292104750245374,0.9461613880809595,-1.0637872419970134,-0.1016035289191525,-0.43268616131732984,-0.021515560988250672,1,0.125,0
13.1615,1.4201427567270961,3.293479095017923,4.940669055671966,11.355536827321806,7.749232022429102,5.400765822607805,3.0364327628758727,2.11512900012743,-0.6454925623150102,0.11560267227057747,0.37349563710145445,0.5551516213088149,-0.6369474444424991,-0.025259878859591803,0.04034790378639959,-0.01566188006175409,0,0.0,0
13.261500000000002,3.0291136797154135,5.493747129545574,9.331714131939409,11.343543429780206,14.73264042166681,7.637664491848867,4.481500648015963,3.270369157976893,0.4738313001301106,1.274069617430878,1.9603419082031257,0.5730338720245436,0.358712752990217,0.580962373966217,1.1365838618091602,0.7827397533360668,1,0.125,0
13.3615,2.943330263239354,4.664707947077264,8.949223064979867,11.179610212273236,16.19571534750979,6.623786538049469,3.8664094244569904,2.726654185245619,0.3252497928714176,0.41124538597480836,1.5581168717868803,0.5529199364449299,0.5079010221443392,0.051868836818904335,0.6267895555719813,0.13372337877980578,1,0.125,0
13.461500000000001,2.4381004216652915,2.84979989687463,3.9593872231666487,12.807257505027875,16.676939923854153,6.379987255041514,3.0422897328191723,1.441560907253196,0.05288757729312084,-0.2881223426766675,-0.19973369581963735,0.7005769643462338,0.4785091939159083,0.055603527494816236,0.22190084419922204,-0.4851999308258251,1,0.125,0
13.561499999999999,2.841638685136873,3.3101771509099684,4.098265492713287,17.468185747549878,18.635255195105355,7.651198661542552,2.8453919089737303,2.1658145954717813,0.37515729237077816,0.13203901038595595,0.006152516543453707,2.095557505433502,0.8028643572315685,0.5782817148358931,0.061622901498943526,-0.09167384345933101,1,0.125,0
13.6615,2.203958531055936,2.4549556601435683,2.525238020484452,12.815388685449102,13.609473436354289,5.625888396640752,2.5548057168019045,2.316302760372827,-0.10112357354484931,-0.2668754685264258,-0.52191834256305,0.5994239042544237,-0.06841658608190554,-0.13095882149336896,-0.041303826573624546,0.0013079985564975443,1,0.125,0
13.761500000000002,2.059560464339726,2.334544504062282,5.206116416394263,8.42238580745423,13.307012036022444,7.468581550493348,2.4291257868935427,1.6672258252094345,-0.11932997691900228,-0.32919515504560903,0.28478057597307715,-0.015626715888618612,0.0967650122840184,0.35763564272555487,-0.11953718121100698,-0.3945726007232807,0,0.0,0
13.8615,2.766027140782344,3.379878526990263,12.54010152515418,22.847968573642813,25.05706647676695,11.292091757156474,2.260515866667037,1.8384097718315926,0.24192348667666763,0.18158450238557497,3.1682568391395574,2.783420791974902,1.626421692940412,1.6157654136490434,-0.23453838376105715,-0.3769657639942412,3,0.375,0
13.961500000000001,2.7149882381739774,3.929625514279163,12.2922788367262,22.553138942189452,25.039330091076295,10.598347176517647,2.3396412894173633,2.3072154875676594,0.1914825720232284,0.5982305815132789,2.8890342504999036,2.5998750862147673,1.3817309435108802,1.1713058643825296,-0.221873997039829,-0.07793538814864352,3,0.375,0
14.061499999999999,2.555661505426073,4.293657271100006,9.600790116881914,15.696687312618991,17.80988474288649,7.52337893256753,2.1577567684198047,2.0321060372003528,0.24355432535102697,0.8303835855938488,1.7015498428460234,1.3641065631641345,0.6223360722763915,0.39099312386886226,-0.3309409848422029,-0.12252025113993872,2,0.25,0
14.1615,2.9503892117956863,5.13333695797283,12.327654281558964,21.910172926881714,24.536411421742436,7.482208653862194,3.013402647248572,1.9043841244407476,0.5383821920212761,1.2698179911420577,2.9164366636118113,2.685849568413685,1.3410188406251111,0.3382708957914338,0.24649349423164754,-0.1361531501881605,3,0.375,0
14.261500000000002,4.558503831514735,5.874346734142746,10.135645728085942,17.259537315230865,21.653740266469317,9.471418111010193,4.362952942784123,3.2342946091707625,1.706353652682299,1.8111720591040048,2.35301479456555,1.2863216303472234,0.6328100660266601,0.6370482618328155,1.064272584637816,0.7354215727829718,3,0.375,0
14.3615,4.78014564582138,4.990392139961838,8.122571949276939,15.280073654945145,18.336788318945874,12.36513601447237,4.9082526458783775,3.797396121631534,1.7420333897772864,1.1124787258573672,1.5642758613048235,1.2298547628626841,0.5100984525558929,1.5976817981955203,1.4279859350371986,1.1980242260481133,4,0.5,1
14.461500000000001,3.4417544941301155,4.180445152080947,8.746474364538422,17.029321322250375,19.769228321496357,10.721541959305469,4.652139514836537,3.5182413022626817,0.6883116082110646,0.6159086410460172,1.7232795654003212,1.9444468655983287,0.9538237544121977,1.1153050714328319,1.389515096222003,0.9000435327620537,3,0.375,0
14.561499999999999,4.06688647184823,4.405536296036201,6.817372266439733,11.461070175943224,12.482531292685497,5.513089609661054,5.682323300889658,4.005742372766578,1.1420182723412657,0.8966777665767269,1.0495347020888048,0.5890743150442441,-0.10973910908817244,-0.14335918299579525,1.9194480862388534,1.1706607045667576,2,0.25,0
14.6615,3.9765741149819713,2.9543653063410544,4.522519976172241,14.349372852873067,14.21653620355361,5.430606845416006,5.432455909435398,3.6262268444514816,1.0032805684010457,0.04304052615131792,0.20136659160817383,1.0969258373809287,0.011161540440409562,-0.1176723388472332,1.7195628145071238,0.9033920602887215,2,0.25,0
14.761500000000002,2.476726487525156,1.3502654802310632,5.669918689381464,15.945604721553188,15.356181931215822,4.65367331880279,3.219849572255063,2.384502455192608,0.0664061048135787,-0.7926346930103497,0.7875984428079881,1.7961362007303905,0.2518674877106737,-0.384925613416823,0.31707957246768237,0.00787963804291593,1,0.125,0
14.8615,2.881522021508338,2.1838564697306957,5.733216202444981,12.330614745394012,15.797108827034844,8.177903769128392,6.123252381871182,4.854935740379919,0.39626340394308307,-0.4574280280045599,0.8376132333948882,1.0206551325123185,0.3678647420241776,0.3245292299007829,1.6759700896398289,1.0968615285062326,3,0.375,0
14.961500000000001,2.89953903967129,2.753306509845445,5.257528672212736,7.567237193623501,14.086588443986805,10.6091245267725,6.676121760317745,4.915150210054279,0.45035017695053836,0.014440864702531347,0.5255807111901254,-0.10085495232630085,0.19999543589595117,1.2299969097395058,2.2669740733151387,1.3228969543082667,2,0.25,0
15.061499999999999,2.406066312908203,3.508251392367747,10.179650914259401,14.068968550498802,14.483285999347215,10.814141075487465,5.077342597410666,3.2021736154052585,0.08192358633130031,0.2269775904189612,2.2205756886069112,1.0014044786911496,0.21996675257895906,1.2733575385888982,1.4213468355456411,0.5861577543182083,3,0.375,0
15.1615,2.7579121506707325,3.4539653344815173,9.650341949182009,14.195494345060244,16.189709734101434,10.803403028852193,5.100518961721476,3.5599772408027404,0.32574280071176104,0.1331816623828793,1.706433425029768,1.0068500374357343,0.5314180587398544,1.3472271504069349,1.4697815446682752,0.9313443275556671,3,0.375,0
15.261500000000002,3.5492579620596927,5.063503875675117,6.292157285950807,8.44059604824032,11.562490942275772,7.605354668152565,4.178438032543157,2.9921101148865756,0.990608137079181,0.8885453157762124,0.7157622721258838,0.10158751403879894,-0.23531965918760941,0.3643929171323494,0.8857747589209835,0.5830891540697895,0,0.0,0
15.3615,3.365140616959902,5.20867528155272,5.821247963968888,9.426735443394469,7.424935391020786,4.14381532720569,3.0373429650112067,2.6503519189956974,0.8325759376547751,1.0014986530615344,0.45261913724149444,0.34092626903287027,-0.811453193743397,-0.41173471128580674,0.09059129546690439,0.40049198556015947,0,0.0,0
15.461500000000001,2.204019568538828,3.1115999623766597,3.111027573887591,7.537600666585501,13.52440187686916,8.535757599831532,3.691020835475389,2.390883411566746,-0.01066551612517932,0.04755530786922612,-0.3258825762928372,-0.18153187507386154,-0.0958676662742191,0.4182420368566097,0.33505000365399196,0.1182604742118953,0,0.0,0
15.561499999999999,3.0691455759698676,3.8211100671560336,4.097577236675955,11.561537075518002,16.079910057711107,9.065454720109331,5.028585842206137,3.6764474838175274,0.5917596035234852,0.482674999563196,0.0038921739628591714,0.6093826092942967,0.420366909219513,0.6060809518498415,1.4056569580964224,0.8060258193478521,1,0.125,0
15.6615,2.8102115061440025,3.902958509625727,4.834901728701268,10.918549009541364,13.306774098235184,6.847584289446118,4.361048712694186,3.5729035971221403,0.2876530319363577,0.5699563422622298,0.2678935209115925,0.32158419031988744,0.0455429459729023,0.22891054070207095,0.9488178636158026,0.7115927001984211,0,0.0,0
15.761500000000002,2.2135186863202043,2.8557318825349616,6.086836581540542,8.12798199937417,14.41824561221817,7.730918681100337,4.070601212192101,2.3497437160123855,-0.2217546664083854,-0.14124524249892836,0.7272390675646782,-0.3378064435179667,0.09955152214066645,0.38456374801262394,0.5473954181777045,-0.20635079462539305,0,0.0,0
15.8615,2.642782041009344,1.9913586757524706,5.605953812783358,9.063749130016092,15.050659246571847,8.531026896134183,5.618439970485104,3.0487021812971222,0.059002747889938464,-0.5129853844268255,0.4917397357140563,-0.09483379201106193,0.1202147294954476,0.4964096098065903,1.4321818016722785,0.19925859843346214,1,0.125,0
15.961500000000001,2.3532345826325543,2.687218860682555,4.3675082669697085,7.466429883826817,14.580362655042052,7.951086704818733,4.890761522427105,2.826202952912186,-0.07497437457012848,-0.07200720091022089,0.21648880473460294,-0.15593967107511822,0.20368543336273473,0.39992002417936773,1.0581949698872337,0.20824626873611396,1,0.125,0
16.061500000000002,1.7315590375406806,2.6083717604605345,4.811946637997496,10.105308635253119,14.526275953178851,9.981339311743005,4.770846848190664,2.6286594969087815,-0.47813049739859914,-0.24975422363805555,0.4052342329482987,0.4551176820042467,0.4228908862111405,1.0236207562446216,0.9904450094189413,0.15138236282151082,1,0.125,0
16.1615,3.4840204908941748,3.5697218156062496,6.595625191574936,10.959975743392434,11.360284669546584,11.001410358344526,8.430661068813984,4.704919215466393,0.4738509599401465,0.1774684837147679,0.9838826587401533,0.6326577352763342,-0.08504225824976959,1.4061727314218413,3.273978211577693,1.4504457591994464,2,0.25,0
16.261499999999998,5.620261355173721,4.9807128938516,6.276957476557652,8.602867555673992,10.938698369737667,12.496464905686661,10.891610766395411,6.772094822845145,2.441765105564438,1.222784482908572,0.7905726369398309,0.10045694190290892,-0.19040013315599136,1.6842265047111469,5.190466310953063,3.1756732056794146,4,0.5,1
16.3615,4.691050422581073,4.311442869893138,3.2165352553988713,11.67549779895974,14.872342704299799,11.417110663019734,8.402634368034983,5.689771063316113,1.4576324490871952,0.7764718290428435,-0.2994712366335632,0.6685845450462867,0.23258110892766073,1.2227921898540783,2.931074529713552,2.203087108936133,2,0.25,0
16.4615,3.875680484277302,4.359056117600284,4.433901215837449,12.625600306429567,15.059700190807717,10.53999771047355,6.466529668571824,4.181455224845257,1.0346839423002934,0.7663100352628617,0.15320624944155942,1.0679809149211383,0.08529529099917361,0.9449412701030958,2.0529625958633577,1.2844706056252175,3,0.375,0
16.561500000000002,3.9986271200230754,4.840554169783353,5.095250807738939,8.855536470743901,11.96624793949133,10.538016079358583,6.388575636119857,3.975398973873504,1.118125014201013,0.9976242192942896,0.5657189415304821,0.22230376117226577,-0.2325392885572843,0.9929335540731095,1.9620545942472283,0.9263741383483228,1,0.125,0
16.6615,3.3098033679017274,4.42484896014402,5.943707023335341,13.70044699334196,13.76088923804485,11.868535318650217,7.101923799703302,3.37118475505566,0.6570901683985549,0.8186637543648126,0.8012384704036966,0.9399112041165928,0.08298808804827615,1.418318871010963,2.3811561452247654,0.6773725451648062,3,0.375,0
16.761499999999998,3.594444204566079,4.216061282123295,7.694934591903925,13.316030205527468,14.373827088399164,13.30614117648542,7.584820003214459,3.585449401571813,0.9550920176529375,0.8405509122958402,1.6678547404547115,0.9141473123494296,0.19737345296686448,1.9668635250551643,3.023483800323004,0.916474401714403,4,0.5,1
16.8615,2.989974307206958,3.642595048094032,7.767980859122219,11.777688698148793,14.542888244833039,9.504522077527085,5.52008451994661,2.9956179079204297,0.5458624169998529,0.4857740750951727,1.4322927073110758,0.7293723294226752,0.2333934303763789,0.9687013242892732,1.713608039381078,0.4560484443130427,2,0.25,0
16.9615,2.1365870303057783,2.7785088016496107,6.467459325454063,13.8787282597901,14.062312310574704,7.465828438813,6.906906635298467,2.797478020863965,-0.12083654638908731,-0.10457525001612687,0.7380582759642106,1.270780334927862,0.1646605229430585,0.4248765857756971,2.6736264152226696,0.33589790247142864,2,0.25,0
17.061500000000002,3.7468969674623156,3.6961272222741646,4.597313879143417,13.25434963354685,10.501041452087179,7.649946168516567,6.893950364533922,3.5303595989425256,0.6465470488004251,0.14394143519221614,0.24855449660945642,0.9149987036537972,-0.3916777330060514,0.31556184503070855,2.555278894367609,0.6953263120016081,2,0.25,0
17.1615,4.132888926122117,4.4216741740676095,4.195668692613148,12.509149756093397,15.630980071530773,9.038404977906781,5.68822308226825,3.8878759192279673,1.1312630828924815,0.6625944054379407,0.10860354097904673,0.6821652950774564,0.16513173816261983,0.701155286094509,1.6682831371368883,1.0632740987919538,2,0.25,0
17.261499999999998,2.2347951662583614,3.036031889453754,5.9879358292076175,13.630647924042943,21.465142566166254,9.594593174346278,5.012583515788197,2.7107943297383894,-0.07645946813719623,-0.08078665054012842,0.8015017844466814,1.205996534141424,1.2913991716186566,1.0639963351369035,1.5232792138921005,0.21666273323370672,3,0.375,0
17.3615,3.3490701159020566,2.1585559382008292,7.147289021976189,15.65995440870452,28.023170119181504,13.35912300584676,8.623796058264567,4.736296293593621,0.4571889821570878,-0.41509543133507754,1.2535536884069267,1.4561834483644498,1.9035142866900225,1.8344203344273016,3.425348354612195,0.9796544701413091,6,0.75,1
17.4615,3.922581507579133,3.4956137577093,7.8260811768349585,13.660144263319246,24.75018150685663,11.8190841738751,8.331722974275905,5.377604340094246,1.126027990253518,0.250515452386308,1.4839486516661913,0.818112423355482,1.0540267175514548,0.9487829539186106,2.9329137969283927,1.8893418932821036,6,0.75,1
17.561500000000002,2.6404701065749485,3.564805554817302,6.9615598712693565,15.072017601495844,22.133123182760613,7.880073793202988,3.6263984689220816,2.973611705551573,0.30734302182608786,0.2444454083452521,1.1326867218586505,1.1986192052555156,0.9269779177795668,0.30883773626513206,0.5511124462038252,0.33165268407331977,2,0.25,0
17.6615,9.31266190756459,8.411611651464426,7.058703288449864,13.761610454663613,21.920039651543238,17.19432482103712,11.909522083827198,8.884361499386621,3.5925145519308432,2.136375432246852,1.0676663961238215,0.8339370616463203,0.9016763365696343,2.7899036725866035,4.750633655986912,3.060783613063562,7,0.875,1
17.761499999999998,10.362078890958095,9.802956640253061,13.225754976580221,19.916102621314597,20.551003058902314,17.791973329808965,12.729409034049182,9.799838887107265,5.226542626016345,3.4429730215803485,3.231036775163753,1.5414669864249673,0.7670967552677141,2.7239061324572758,5.7512795310816,4.574991573104587,8,1.0,1
17.8615,5.925813678784009,7.170018806047499,15.359793112199007,26.735840990247965,23.876567827965278,11.84031024458637,6.4843924791107765,5.327766007527698,2.0191452761647892,1.9998158896175156,3.5248239326373367,3.2504708203770627,1.4022210154717971,1.2446997699372289,1.7578914729992527,1.6266900087801428,8,1.0,1
17.9615,4.246091228702263,5.3642128661870565,10.660143370422563,19.55586397099117,18.382206728580865,10.158285173611503,4.3548601892759295,3.7817643026113874,0.7430276164549839,0.8731486147352805,1.417743746640519,1.6442488451470134,0.6072747345778992,1.0540416435614564,0.400547032590041,0.6572183950017316,2,0.25,0
18.061500000000002,4.790420534467274,5.186054776507557,4.964765359775648,6.999002750666959,15.158411032948433,8.999250662195927,5.286469621175529,4.090959616243528,1.2653325504416848,0.8465392031893727,0.31057056496607893,-0.246741535051419,0.23423276428333117,0.8539280451439945,0.9694869657530693,1.0298240369249754,2,0.25,0
18.1615,5.116329479781532,6.166967968652021,6.797480941406656,11.799983140226816,23.806328956876953,13.919687300763005,5.850856633951828,4.404951767004226,1.6819647075496866,1.5945107998114865,0.9592496450897304,0.5105180588740317,1.3648432140401152,1.984951514337781,1.640954226876293,1.3516394934971896,6,0.75,1
18.261499999999998,3.860228868910418,6.292636860503763,8.352834210489707,17.78706047543159,22.308259644406665,12.714381232309226,3.96262713158812,3.197371255312734,0.7886815147268014,1.4667562696841454,1.6221865144375556,1.8449047263783067,0.9393647516296785,1.3186379360822096,0.7682275716055895,0.5449313133851648,4,0.5,1
18.3615,5.456164029165343,7.836461376025711,10.737772293240784,20.062416453862888,20.387553972819248,8.838133195849537,5.441299847652087,5.420611653294985,1.6394883720522293,2.036143415150805,2.2611623740061764,2.3538564711685903,0.7224345470833938,0.5871991442310215,1.5673897572501787,1.6481805961886231,7,0.875,1
18.4615,6.087393709653728,7.423922450117341,10.193791110436326,16.17300992534305,23.77726649724538,10.003581282967723,5.723622566273643,5.7701254680393985,2.421967173743952,1.9379900774581085,2.013497039147809,1.500277708279429,1.3631786601138376,1.0913328673987917,1.6088266423614477,1.8894732318137661,7,0.875,1
18.561500000000002,4.978130428822562,5.897601221559277,6.12302728520474,9.466773302889376,16.32183078925997,6.588360007960729,3.350157122615715,3.7650979383126484,1.8271958474958812,1.3069389015268593,0.6857978499010254,0.19639831488250364,0.20222021755031314,0.09581950355116695,-0.13573415410062123,0.7515480651376433,1,0.125,0
18.6615,3.535573488656088,5.207939489173487,4.651256627561146,8.990298968871697,10.636870254139668,5.380580274881284,2.641204607498873,2.737379418080722,0.768166814983067,1.0658179937060503,0.03755023701071269,0.007623923882644466,-0.33810646551645634,-0.20014759495037204,-0.22214227584092391,0.21343452088128945,0,0.0,0
18.761499999999998,1.5270989549705989,3.3308329377548236,2.9802937153380316,9.418296983129059,11.234557798688314,5.302428752050237,2.837478447087261,1.1089783329523395,-0.45268100000756595,0.13412121067299837,-0.4485667503282147,0.2957797566565029,-0.08857780081935131,-0.20241161865665547,-0.10803259167921697,-0.8305121485557678,0,0.0,0
18.8615,1.4397163062876213,2.510573190329048,2.1557667199266284,8.61656773109102,9.34247927288441,4.808562285355251,3.2446491324034947,1.3646153822637557,-0.5607501261660841,-0.22318236912643566,-0.7368193298674375,0.24493584411731695,-0.549088235268864,-0.36612839618036674,0.17605716419513834,-0.7592760070818266,0,0.0,0
18.9615,2.174418070346621,2.150976471683039,2.1671964740992737,6.14884773139732,6.572936059608666,6.463021574585891,4.4361706363514575,2.3992139323490234,-0.07435739296779953,-0.34319321071107484,-0.7531256795852854,-0.4208433953059163,-0.8869150415268544,0.06199105940251608,1.2712540518009,0.1175529773249231,0,0.0,0
19.061500000000002,2.395704838309076,1.5723067955479904,5.2324958352956035,10.273443147758794,10.83889563933294,7.2297467291279,4.179385681413412,2.249169237643055,-0.05927706822160738,-0.6379713856160818,0.35028081147226575,0.31079354474765486,-0.39905750181337374,0.25908992540462383,0.8846763371681702,-0.046376730694835014,0,0.0,0
19.1615,1.8171983795819626,1.5503840853355768,5.166837123660724,10.487018321241841,10.57734899965914,5.862905061877649,2.611348132508817,1.1655048594009814,-0.5071528188632606,-0.7086261664063203,0.34100920807338925,0.33926665785875343,-0.46274179822897155,-0.18961071404771743,-0.4610878835453691,-0.7845803512929176,0,0.0,0
19.261499999999998,1.697568964309367,1.276519116258733,3.7845665085310474,9.229035559002746,18.246200174465525,7.709581740065952,2.6345143355503526,1.4130764715855748,-0.3549440790502904,-0.9325961120907132,-0.10095454458336647,-0.1336877191956632,0.36217850104604116,0.09440826928123398,-0.5015680052741821,-0.6243999737548155,0,0.0,0
19.3615,2.0140790168196294,1.5998718150185387,5.144098756892084,12.557413732393972,29.450939936315457,13.959079511462365,3.5861999062736465,2.0113842431087363,-0.09027754194398614,-0.8144753077733203,0.5141029012414798,0.7617911821786385,2.159791679216495,1.81816694546294,0.3588635767303542,-0.2707064203302238,3,0.375,0
19.4615,2.224163501835242,2.649926497567595,5.8050960788674315,17.05512662675848,31.300572342473288,13.959625034196787,2.8898146177756616,2.2549006727926586,-0.03384922861938847,-0.15322530537223808,0.5886999935922558,1.874805022656116,2.5648977948193292,2.023200588858335,0.06220085178161512,-0.022071492017827578,3,0.375,0
19.561500000000002,2.2377845489779884,2.6444540105855503,5.715455815134502,19.571921784567262,27.3596476155737,9.220479464523006,1.9747563648595856,1.857269676804445,-0.01165137665812326,-0.10831266749760411,0.5106051216150232,2.521659341462049,2.1044919682243344,0.9461755458515122,-0.37041401915664207,-0.2203132808188423,2,0.25,0
19.6615,2.202888288405773,2.4621382503111895,5.273938652224102,16.153504768298873,25.772027454318902,9.24474143220089,3.0532265186942205,2.0828973375187743,0.034963725158453814,-0.12233772279881858,0.37786261173036223,1.6167666208302507,1.8713207423973328,0.8519968521962339,0.17840340184628978,-0.14581300442712225,2,0.25,0
19.761499999999998,1.6582726701792208,2.114039881548912,4.343857175190779,13.873507958255617,22.33015183112762,9.410408637761407,2.8226616932170048,2.0380798027382947,-0.5880266335291541,-0.4196337189455959,0.04313981405626872,1.0999436983813229,1.4086682458892072,0.868001580922375,-0.21773407499315206,-0.27773135818949546,2,0.25,0
19.8615,1.2989971000317402,1.1772989609528342,2.840538683473287,11.186406373536261,15.05204417493863,6.991721116918365,0.7898093096705773,1.2636305156450252,-0.8194799444334288,-0.9468773788889436,-0.36684490051135404,0.34968777866882556,0.39010395889110766,0.271191934847433,-1.2911004797402958,-0.655237123745829,0,0.0,0
19.9615,1.5507305866242012,1.3186433549796266,2.1373251764772427,5.15961205686131,13.583402068079483,7.684744985426555,1.6347604674155625,1.305233836222263,-0.4933894698790738,-0.9110848098270129,-0.7864626187508142,-0.5685870576847717,0.14242294989118146,0.5549360288615834,-0.9574597397337219,-0.5998916626490387,0,0.0,0
20.061500000000002,1.3695258228579281,1.9812993898658402,3.820092746560255,8.92139684109867,14.588263922895505,7.9769030233635005,2.096716543520614,1.1493688012559098,-0.5750732343438143,-0.505665397950522,-0.3361500091873642,0.12333517085057955,0.28678838876519025,0.6584438982064538,-0.5219428527809191,-0.7125389038966535,0,0.0,0
20.1615,1.4124075447889228,2.0121114224823784,5.337903262550024,11.003601649679391,11.033481317097458,4.91868878097833,1.5483457559508538,0.8990595837653342,-0.5363460054125578,-0.3812772212262709,0.47442046815610495,0.7447414892164251,-0.3072841252401297,-0.31167839578218454,-0.7724707128014952,-0.9283630319676096,0,0.0,0
20.261499999999998,1.444595269047594,1.9283583698329643,6.261871561493463,12.56085457387539,16.810256005522245,8.016544679972535,1.91086785168771,1.2106856728155064,-0.5476858416231862,-0.5266044071597897,0.7565339953938539,1.0240329262829324,0.24232205623737413,0.1969423788486853,-0.6486288287032991,-0.8809066399534854,1,0.125,0
20.3615,1.421704535775339,2.0216419663000824,6.750193513250663,13.935580835015429,21.560294668483635,10.623736288725016,2.4267484787015072,1.6832174443687855,-0.6346379734640539,-0.6445479535272114,0.5992888450329527,0.9465436630831005,0.968598413429473,0.9409036702840813,-0.3361617024848972,-0.5368143984650476,2,0.25,0
20.4615,1.3859263279687972,1.4718403466829304,5.143178608096716,11.143326189993983,17.121678438801617,8.450692790834198,2.0111992366293934,1.5218061511410605,-0.6564301993565747,-0.8990671267501049,-0.07835984265404998,0.40269763750038706,0.458988130666093,0.4415984461838312,-0.5098779372516131,-0.5192632084832556,0,0.0,0
20.561500000000002,1.7631797448018343,1.6917959825306161,4.157014813597415,11.539323629111315,10.946525036044006,5.410695991827295,1.7454887607820195,1.4072034379393699,-0.37939015819849603,-0.662472136017925,-0.13898532116208362,0.8764577782462805,-0.13968412800515895,-0.01643850191680275,-0.5028456685037482,-0.5107019091737228,0,0.0,0
20.6615,2.3909795484934215,2.4363148733984485,6.203028114465333,14.863036651614605,18.772128294101073,10.985431194477263,3.5815890599339437,2.578435847921389,0.0921306116761891,-0.209116956509462,0.773551302313306,1.5833033942071675,0.5862486948916252,0.9969700106928773,0.4677280153299319,0.09218513468442384,1,0.125,0
20.761499999999998,2.2179823383115376,2.413673861604437,5.299893800986857,11.417650313676072,18.161128884252474,10.612057879522332,3.613905027953907,2.525515087063169,0.011615665127077164,-0.1367066810638646,0.32045141262237253,0.41492360034926046,0.3032550370351303,0.6646642467870385,0.38084325428738297,-0.006205506411752626,0,0.0,0
20.8615,1.569701893000114,2.1640305382143183,2.337972605398281,5.9933581251197205,13.106524071768064,6.102385083543248,3.1650010161442452,1.948497249669416,-0.4722376460624352,-0.2365056366013129,-0.6261183974841097,-0.5342159166242206,-0.3434112831309819,-0.18725146353834135,0.16272905811535884,-0.24940566303147116,0,0.0,0
20.9615,1.443597441315743,1.8040219758053946,4.319023909957958,11.5925263354071,23.041327053848306,9.462001314045157,3.6177401964972096,1.9734072218482555,-0.705370673808965,-0.5344445831239952,0.042813866818828636,0.6738009337814108,1.3105315368878578,0.9038605466026653,0.5002709063736488,-0.2217545283380559,1,0.125,0
21.061500000000002,1.3885159988327258,1.6288543162510518,4.656856894428187,11.278357832491942,21.50234620428894,8.348280566247173,2.4514347164372845,1.3006488473290017,-0.6834846397753687,-0.6563777914762912,0.2503536268254911,0.6299019934746822,1.2016442155778773,0.6292425892355397,-0.3897249242864981,-0.6360673458055607,1,0.125,0
21.1615,1.1324410645542355,1.4687130680813507,2.9143563704230258,5.20865925576199,10.55914342009158,5.407563977911795,1.130819486123189,0.907158395781608,-0.8410278708570842,-0.7767852702666501,-0.3603132800852902,-0.5913807947977634,-0.32268991748757164,-0.06667813522874325,-1.0308528900013012,-0.8964494694050892,0,0.0,0
21.261499999999998,1.2634774303472989,0.9320088051426413,2.3162642631180343,7.300824747063005,10.089688308983932,5.755630680195861,1.054404748782528,0.7141499763565788,-0.7483871493005667,-1.0004625413523303,-0.5586096762127143,-0.3207824213872669,-0.4133465919873962,0.010870482658670627,-1.0444920777876516,-0.9900846605347201,0,0.0,0
21.3615,2.3080943439543167,1.8707349914937197,6.1426174489572505,21.862990767023852,25.40349388758032,10.948355806544985,3.0518556972936652,1.7518970762176087,0.028460246159654763,-0.6600962951813544,0.4217868420193461,2.2746835185655465,1.3468306575229314,1.147160677919723,-0.015129351049612112,-0.4130305545772608,2,0.25,0
21.4615,2.1577329627501216,2.0379124268280124,6.188110659007085,21.90612856443102,30.883951235489928,15.834269139891102,3.6437563376785547,2.3987005896038225,-0.17228678454295848,-0.5230497910415042,0.3803093828168303,2.32516711399153,2.1651656487170126,2.2837759960113546,0.5008558376641198,0.08752568891996831,3,0.375,0
21.561500000000002,1.20536826081152,1.3176974799786554,2.2980688918268535,8.973508415367226,25.763166528375393,14.065752920231898,2.356383547895213,1.8175527219874281,-0.71266023819056,-0.8194442035925869,-0.6766220949174209,0.12608616601918,1.5168363989891198,1.6371531864120548,-0.38656599027618405,-0.4338577663477943,2,0.25,0
21.6615,1.7272368530492745,1.284509960881831,3.1449954183343056,13.506790720772859,25.267523437487494,13.314475938247078,2.4253789283013814,1.4054831418663756,-0.36196946384663997,-0.8816735437119927,-0.33748979918599903,0.9633465764986887,1.5736505671947187,1.7047397503449926,-0.2723092823849468,-0.6319673554408967,3,0.375,0
21.761499999999998,2.407982998043379,1.804741570261068,6.910371895660917,14.999835257172789,22.875227978950274,13.434463878645879,2.669963718409489,2.1972642871097317,0.2045882593159124,-0.5861480121763069,1.1500277387738256,1.5439064816406414,1.3092157981598962,1.90123147969341,0.0200307718539781,0.04033483500023805,3,0.375,0
