Time,Fused_z,Active_binary
47.0,0.5659921362795324,0
57.0,0.5896225693847627,0
67.0,0.6104969351639908,0
77.0,0.628480875379412,0
87.0,0.6436948518651193,0
97.0,0.6564707325761449,0
107.0,0.6672633090743828,0
117.0,0.6765312236497508,0
127.0,0.6846188863187109,0
137.0,0.6916834155666512,0
147.0,0.6977005685751517,0
157.0,0.70254925568778,0
167.0,0.7061339836558415,0
177.0,0.7084842702855888,0
187.0,0.7097829878047835,0
197.0,0.7103143306693303,0
207.0,0.7103650834959363,0
217.0,0.7075208970879772,0
227.0,0.7003043093171177,0
237.0,0.6878136534856123,0
247.0,0.6699271282193682,0
257.0,0.6472988011577747,0
267.0,0.6211603414848075,0
277.0,0.5929776773247102,0
287.0,0.5640580739736304,0
297.0,0.5352422586810128,0
307.0,0.5067883692306083,0
317.0,0.47945730968343725,0
327.0,0.4627470162974352,0
337.0,0.4437025824466579,0
347.0,0.42198485316080064,0
357.0,0.39811145588971925,0
367.0,0.37917146630054777,0
377.0,0.3629354216948222,0
387.0,0.34782598674328224,0
397.0,0.33424826039716604,0
407.0,0.3221062497127948,0
417.0,0.3150194680933432,0
427.0,0.30725478882544277,0
437.0,0.3008412432589995,0
447.0,0.29324636038679297,0
457.0,0.28436041288681035,0
467.0,0.2746339351376664,0
477.0,0.2649414704008405,0
487.0,0.2563127054226658,0
497.0,0.24959992139962572,0
507.0,0.24522760453932468,0
517.0,0.24315822213969118,0
527.0,0.24302501265667098,0
537.0,0.24425843565809308,0
547.0,0.24613995622031476,0
557.0,0.2478467086463351,0
567.0,0.24853263735874334,0
577.0,0.24851322788051183,0
587.0,0.2514360042451829,0
597.0,0.25312766477883797,0
607.0,0.25337051559621293,0
617.0,0.25226259357179226,0
627.0,0.25019446529212197,0
637.0,0.24768118731511685,0
647.0,0.2451091223225934,0
657.0,0.24543743592161701,0
667.0,0.2479571077923159,0
677.0,0.24792633907295586,0
687.0,0.2444922217155227,0
697.0,0.2400435074718396,0
707.0,0.23851002112628739,0
717.0,0.23947896578233496,0
727.0,0.24154940931011684,0
737.0,0.2414811928773605,0
747.0,0.24041817911165583,0
757.0,0.23937373910062032,0
767.0,0.23890105715415788,0
777.0,0.23896522560022765,0
787.0,0.23907427740299902,0
797.0,0.23859839166342006,0
807.0,0.23712029096686105,0
817.0,0.23466162779730776,0
827.0,0.23168978636901116,0
837.0,0.22889101569898102,0
847.0,0.22680251538567897,0
857.0,0.22550457639719446,0
867.0,0.2245691505905839,0
877.0,0.22328793031415173,0
887.0,0.22102126479324563,0
897.0,0.21747387726251632,0
907.0,0.21277062886976778,0
917.0,0.20729137900335187,0
927.0,0.20194833918596994,0
937.0,0.19735539785602746,0
947.0,0.19223295016991,0
957.0,0.18756596745804907,0
967.0,0.18067244306029467,0
977.0,0.1718988452857408,0
987.0,0.16227761847738642,0
997.0,0.16054088864665858,0
1007.0,0.163357151753606,0
1017.0,0.16770934724277586,0
1027.0,0.17284757641459925,0
1037.0,0.17804666591317808,0
1047.0,0.18695062612312435,0
1057.0,0.19544435993892037,0
1067.0,0.20116056260150672,0
1077.0,0.20391879865550627,0
1087.0,0.21274772503963701,0
1097.0,0.22223751701658764,0
1107.0,0.2316819934737231,0
1117.0,0.24187886418067492,0
1127.0,0.24992963608569194,0
1137.0,0.2547972771404078,0
1147.0,0.25625887724782537,0
1157.0,0.2562169899317791,0
1167.0,0.25644817451771423,0
1177.0,0.256011406486085,0
1187.0,0.2560356471806553,0
1197.0,0.25793380031512675,0
1207.0,0.2644756282731532,0
1217.0,0.2718279010730254,0
1227.0,0.278484033324347,0
1237.0,0.28327535688006467,0
1247.0,0.28562095305411994,0
1257.0,0.28554885175634204,0
1267.0,0.2835308170792823,0
1277.0,0.2822908337574142,0
1287.0,0.280946619611554,0
1297.0,0.27714337034623426,0
1307.0,0.27132797740727643,0
1317.0,0.26416550517525994,0
1327.0,0.25643852277195933,0
1337.0,0.24886053346023362,0
1347.0,0.250378106770096,0
1357.0,0.25224585570633057,0
1367.0,0.2535971655612287,0
1377.0,0.25646134554497346,0
1387.0,0.2584490426357453,0
1397.0,0.2590917403924128,0
1407.0,0.2590195326764395,0
1417.0,0.25926869656301965,0
1427.0,0.26088520375153496,0
1437.0,0.2644021028459138,0
1447.0,0.2694902202124021,0
1457.0,0.27510992966723047,0
1467.0,0.2800546832665619,0
1477.0,0.28344526109082835,0
1487.0,0.28492346798247137,0
1497.0,0.28460032916139,0
1507.0,0.28291535234062903,0
1517.0,0.280507858597337,0
1527.0,0.27810849703368906,0
1537.0,0.2764184500828235,0
1547.0,0.2759842671456144,0
1557.0,0.2771185462160972,0
1567.0,0.27987449898803546,0
1577.0,0.2840229849521429,0
1587.0,0.29237609929394487,0
1597.0,0.29957681229103283,0
1607.0,0.30419433612740476,0
1617.0,0.30566886017558914,0
1627.0,0.30415769139990123,0
1637.0,0.30063207943153514,0
1647.0,0.2966470368070616,0
1657.0,0.29385181515048026,0
1667.0,0.2934920715646573,0
1677.0,0.296109358306178,0
1687.0,0.3040067660106197,0
1697.0,0.3129719526962773,0
1707.0,0.3221147859166744,0
1717.0,0.33906121415000057,0
1727.0,0.35381214923073856,0
1737.0,0.3653199702327323,0
1747.0,0.37323438790548014,0
1757.0,0.37779307633427306,0
1767.0,0.3796394590138146,0
1777.0,0.3796102161869025,0
1787.0,0.378528868308223,0
1797.0,0.3770409326283696,0
1807.0,0.37551848212519323,0
1817.0,0.3740420811477487,0
1827.0,0.37244373513245277,0
1837.0,0.3744719405779648,0
1847.0,0.37829233932738393,0
1857.0,0.38029901767320784,0
1867.0,0.38009871130585715,0
1877.0,0.3775964843074334,0
1887.0,0.3731503741704463,0
1897.0,0.3676412526195779,0
1907.0,0.3623802826501027,0
1917.0,0.3588258577141925,0
1927.0,0.35815732914571613,0
1937.0,0.3608424936795649,0
1947.0,0.3664107946866734,0
1957.0,0.373590646814155,0
1967.0,0.38074372743400065,0
1977.0,0.38634546794245817,0
1987.0,0.38930428695673064,0
1997.0,0.3890778685466539,0
2007.0,0.38565800470886213,0
2017.0,0.37951034837644326,0
2027.0,0.3715098986692854,0
2037.0,0.3684234601505605,0
2047.0,0.3709801350647317,0
2057.0,0.3725414811392374,0
2067.0,0.37287511059318,0
2077.0,0.3716815529447217,0
2087.0,0.3686541804688247,0
2097.0,0.3636328970550417,0
2107.0,0.3567735649665109,0
2117.0,0.34861537931577796,0
2127.0,0.3435560225925525,0
2137.0,0.33841713297271214,0
2147.0,0.3343680310466727,0
2157.0,0.3326932466724604,0
2167.0,0.33115138670974736,0
2177.0,0.3296519554917111,0
2187.0,0.3282593760698317,0
2197.0,0.3271240838200734,0
2207.0,0.3262697055275662,0
2217.0,0.3253960990049102,0
2227.0,0.32384311487393747,0
2237.0,0.3207345757422687,0
2247.0,0.31520940873669845,0
2257.0,0.307935707380085,0
2267.0,0.3007268135325947,0
2277.0,0.2900347926743384,0
2287.0,0.2763949179941148,0
2297.0,0.2608110681382521,0
2307.0,0.24470126709243192,0
2317.0,0.22978912342043095,0
2327.0,0.2177775908733941,0
2337.0,0.20975983869439724,0
2347.0,0.20579331356736014,0
2357.0,0.20512945175284714,0
2367.0,0.2067379227001645,0
2377.0,0.2101489766768398,0
2387.0,0.2143746632967548,0
2397.0,0.21735289426596438,0
2407.0,0.218774728750335,0
2417.0,0.2187950106094037,0
2427.0,0.21783088077898177,0
2437.0,0.2163071405507576,0
2447.0,0.21450558697089656,0
2457.0,0.21258169400394775,0
2467.0,0.21066459419586558,0
2477.0,0.2089095509818115,0
2487.0,0.20746045916072814,0
2497.0,0.2063786927660053,0
2507.0,0.20561135857237356,0
2517.0,0.20502295470634724,0
2527.0,0.2044634298280366,0
2537.0,0.20383184462045223,0
2547.0,0.20310826080743882,0
2557.0,0.20415909963078516,0
2567.0,0.2067162948730761,0
2577.0,0.20904564610245996,0
2587.0,0.21081471968153237,0
2597.0,0.21158193183113597,0
2607.0,0.2108890000547271,0
2617.0,0.2083696470854027,0
2627.0,0.20381880286257317,0
2637.0,0.19721803894679274,0
2647.0,0.18875145247031513,0
2657.0,0.17883830370038994,0
2667.0,0.16816028424273594,0
2677.0,0.15887604663901225,0
2687.0,0.15402031573741606,0
2697.0,0.15000346025107197,0
2707.0,0.1467335939624041,0
2717.0,0.14374771507857892,0
2727.0,0.14049332741242893,0
2737.0,0.1366302184698341,0
2747.0,0.13219725105824465,0
2757.0,0.12762025262931875,0
2767.0,0.12357938909335683,0
2777.0,0.12076144333579204,0
2787.0,0.11957194730408241,0
2797.0,0.12260331626365292,0
2807.0,0.12878743836279785,0
2817.0,0.13493289409586212,0
2827.0,0.1401491969358312,0
2837.0,0.14433201463035877,0
2847.0,0.15164968038299537,0
2857.0,0.15766529213498334,0
2867.0,0.16236365227587157,0
2877.0,0.1659020304012251,0
2887.0,0.16852440701141863,0
2897.0,0.17049250646398953,0
2907.0,0.17204561880022964,0
2917.0,0.17337363840045641,0
2927.0,0.17998557042154822,0
2937.0,0.18824724345767987,0
2947.0,0.19454820957229335,0
2957.0,0.198724818867934,0
2967.0,0.20079971394130772,0
2977.0,0.20091023255772314,0
2987.0,0.1993178408690826,0
2997.0,0.19648138234347037,0
3007.0,0.19309981489678052,0
3017.0,0.190015627759078,0
3027.0,0.18795122619538285,0
3037.0,0.18717985566352344,0
3047.0,0.18734105184346397,0
3057.0,0.18756508306914732,0
3067.0,0.18683506690325985,0
3077.0,0.18435445213190566,0
3087.0,0.1797724928262188,0
3097.0,0.17326632462144992,0
3107.0,0.16558070719834206,0
3117.0,0.16265498954186128,0
3127.0,0.1597626591368158,0
3137.0,0.1572491230240523,0
3147.0,0.1555770169768142,0
3157.0,0.15640834989035,0
3167.0,0.1589202467572965,0
3177.0,0.16305610318405367,0
3187.0,0.16832550245443376,0
3197.0,0.17462644217501505,0
3207.0,0.1823418137656674,0
3217.0,0.19019725806884896,0
3227.0,0.19835239847535308,0
3237.0,0.2067297442197188,0
3247.0,0.21463888010438095,0
3257.0,0.2212127034381835,0
3267.0,0.2259702748309656,0
3277.0,0.22893433505082483,0
3287.0,0.2304228171469152,0
3297.0,0.2308049957340837,0
3307.0,0.23038873958577732,0
3317.0,0.22983058038138063,0
3327.0,0.2307425858991214,0
3337.0,0.23252598352541032,0
3347.0,0.23518277025659112,0
3357.0,0.23843749003973014,0
3367.0,0.24187901123715627,0
3377.0,0.24511361562211556,0
3387.0,0.2478577839081761,0
3397.0,0.24995905754880635,0
3407.0,0.251377281763901,0
3417.0,0.2521802423335351,0
3427.0,0.2525903978365045,0
3437.0,0.25304346045595927,0
3447.0,0.25412922474487337,0
3457.0,0.25631314268878513,0
3467.0,0.2596051663005478,0
3477.0,0.2635334723860765,0
3487.0,0.2673867088783054,0
3497.0,0.2703446629607807,0
3507.0,0.27149582525441784,0
3517.0,0.2700385546975306,0
3527.0,0.26566000008235824,0
3537.0,0.2587977962390322,0
3547.0,0.25057757673721376,0
3557.0,0.24245474849527437,0
3567.0,0.23580323756369964,0
3577.0,0.23171854390362784,0
3587.0,0.23225686321769162,0
3597.0,0.23677981890879962,0
3607.0,0.2440798286437485,0
3617.0,0.25283243814195516,0
3627.0,0.2614376204687497,0
3637.0,0.26868138853381673,0
3647.0,0.27397709551264726,0
3657.0,0.2772773323070915,0
3667.0,0.2788831922768117,0
3677.0,0.28079381769856443,0
3687.0,0.28379431785394393,0
3697.0,0.28643873069281345,0
3707.0,0.2899436473150878,0
3717.0,0.29472192067271274,0
3727.0,0.3004335406930246,0
3737.0,0.3069816232963726,0
3747.0,0.31408998461468435,0
3757.0,0.321206643967256,0
3767.0,0.32747039383418175,0
3777.0,0.33189870200669536,0
3787.0,0.33737455442511916,0
3797.0,0.34280659320297185,0
3807.0,0.34648348994038036,0
3817.0,0.34982357962720884,0
3827.0,0.35773303862266836,0
3837.0,0.38161856010178613,0
3847.0,0.4149767962779962,0
3857.0,0.4538996846344331,0
3867.0,0.49195984456534003,0
3877.0,0.5229396438359983,0
3887.0,0.5433704649709423,0
3897.0,0.5697921853263562,0
3907.0,0.5990249092177309,0
3917.0,0.6311470923745395,0
3927.0,0.6688081653546363,0
3937.0,0.7109179546172018,0
3947.0,0.7520682412478299,0
3957.0,0.7851294101082261,0
3967.0,0.8051845895062355,0
3977.0,0.812677965243243,0
3987.0,0.8146232469103524,0
3997.0,0.8229364691862913,0
4007.0,0.8493275961873131,0
4017.0,0.8987039040141056,0
4027.0,0.9661127812610493,0
4037.0,1.0444484765667705,0
4047.0,1.1370780341673,0
4057.0,1.2091842705498461,0
4067.0,1.2562191407692316,0
4077.0,1.2800492853779288,0
4087.0,1.2879357617178533,0
4097.0,1.2903622626395856,0
4107.0,1.2978695169671177,0
4117.0,1.356083585755612,0
4127.0,1.4362574171337825,0
4137.0,1.5223570660357477,0
4147.0,1.6058631003723094,0
4157.0,1.6791814787860417,0
4167.0,1.7373202615933865,0
4177.0,1.7783453349014022,0
4187.0,1.8028235628175162,0
4197.0,1.8128250177509162,0
4207.0,1.8110670806055644,0
4217.0,1.8005419886039211,0
4227.0,1.784578666466678,0
4237.0,1.7669440550292759,0
4247.0,1.7552969559795664,0
4257.0,1.7545304317040353,0
4267.0,1.7561656422892131,0
4277.0,1.757555532817633,0
4287.0,1.7545577264345207,0
4297.0,1.7426730809830833,0
4307.0,1.7185759874552482,0
4317.0,1.6815843621838071,0
4327.0,1.6345882163656797,0
4337.0,1.5839532316061538,0
4347.0,1.5379996958907274,0
4357.0,1.5040409383193636,0
4367.0,1.4848842054361007,0
4377.0,1.476697485788234,0
4387.0,1.4698052134061546,0
4397.0,1.4520119472774695,0
4407.0,1.41256798005635,0
4417.0,1.3451999338568628,0
4427.0,1.2496919433239362,0
4437.0,1.132145511254896,0
4447.0,1.0040531227236578,0
4457.0,0.9208120799546387,0
4467.0,0.8571029334834104,0
4477.0,0.8721251353175252,0
4487.0,0.9067077636887102,0
4497.0,0.9596651801876201,0
4507.0,1.0052423716899663,0
4517.0,1.0324468611169788,0
4527.0,1.0449241891244658,0
4537.0,1.0480225781356012,0
4547.0,1.0470844658110205,0
4557.0,1.0630269685449842,0
4567.0,1.103620478622432,0
4577.0,1.144707028253245,0
4587.0,1.1888887798597672,0
4597.0,1.2395698139656188,0
4607.0,1.2793750719436694,0
4617.0,1.3057497244413618,0
4627.0,1.3191727526348194,0
4637.0,1.3236355383021499,0
4647.0,1.3262508540019786,0
4657.0,1.3354518328162202,0
4667.0,1.3577762084065383,0
4677.0,1.394828328302397,0
4687.0,1.4427486256682662,0
4697.0,1.4943871952097876,0
4707.0,1.5420891481720103,0
4717.0,1.579482138686203,0
4727.0,1.6021990088384328,0
4737.0,1.6080826176296692,0
4747.0,1.5972576463112844,0
4757.0,1.572154395925671,0
4767.0,1.5637454340836898,0
4777.0,1.5589703317913308,0
4787.0,1.5896321098820099,0
4797.0,1.6490214516203583,0
4807.0,1.7093136375822404,0
4817.0,1.7649594969076765,0
4827.0,1.8117906210393846,0
4837.0,1.8473007222422198,0
4847.0,1.870552655284785,0
4857.0,1.882195328135645,0
4867.0,1.8849498346021303,0
4877.0,1.8845898889874801,0
4887.0,1.8908202578998805,0
4897.0,1.916679099628793,0
4907.0,1.9750312941958836,0
4917.0,2.072804503784558,0
4927.0,2.2068058578015357,0
4937.0,2.3644557402788053,1
4947.0,2.528235078641381,1
4957.0,2.7146760857346033,1
4967.0,2.913632779948481,1
4977.0,3.0980816793957113,1
4987.0,3.2401962327566,1
4997.0,3.327447373181337,1
5007.0,3.3689450081128616,1
5017.0,3.3782348560918853,1
5027.0,3.370099550963247,1
5037.0,3.3574801426020944,1
5047.0,3.3493174297810655,1
5057.0,3.3499109729956915,1
5067.0,3.359825466991976,1
5077.0,3.3777134551768,1
5087.0,3.402126238219818,1
5097.0,3.4326004305426077,1
5107.0,3.469780847043827,1
5117.0,3.5147717324136205,1
5127.0,3.5681704980847835,1
5137.0,3.629296419413162,1
5147.0,3.6959603324182355,1
5157.0,3.7647795962607034,1
5167.0,3.831691740308641,1
5177.0,3.8921673316268794,1
5187.0,3.9408070624728486,1
5197.0,3.9705261001091587,1
5207.0,3.9721192530578904,1
5217.0,3.935148007603807,1
5227.0,3.855541741720671,1
5237.0,3.7464556774393354,1
5247.0,3.601376766785785,1
5257.0,3.4338917227618326,1
5267.0,3.264829013088555,1
5277.0,3.1198122064717184,1
5287.0,3.0240462141313174,1
5297.0,2.99269131284061,1
5307.0,3.021368744847789,1
5317.0,3.0895545797316775,1
5327.0,3.173905324208863,1
5337.0,3.2564204587747336,1
5347.0,3.3256969725997694,1
5357.0,3.3763053952617392,1
5367.0,3.408431435931325,1
5377.0,3.427377840488387,1
5387.0,3.441913720806797,1
5397.0,3.4610766754494735,1
5407.0,3.4902070364007067,1
5417.0,3.5629958018554793,1
5427.0,3.63289601850739,1
5437.0,3.675379971679826,1
5447.0,3.6971233416204807,1
5457.0,3.678052829117848,1
5467.0,3.6270856880339926,1
5477.0,3.5672008586244734,1
5487.0,3.5307697798544426,1
5497.0,3.5493270850999465,1
5507.0,3.6411918067552795,1
5517.0,3.8036896099802027,1
5527.0,4.016122509571092,1
5537.0,4.285846880045297,1
5547.0,4.539676402529629,1
5557.0,4.756828155889744,1
5567.0,4.9199976844203,1
5577.0,5.02153920896888,1
5587.0,5.068690814640576,1
5597.0,5.074992664795642,1
5607.0,5.05612990862515,1
5617.0,5.025949032279915,1
5627.0,4.993914125941507,1
5637.0,4.9645868488572855,1
5647.0,4.938557102097498,1
5657.0,4.9136272751385555,1
5667.0,4.885503244149923,1
5677.0,4.848282928016832,1
5687.0,4.795629730974698,1
5697.0,4.723086394120319,1
5707.0,4.630919150388991,1
5717.0,4.526061274776108,1
5727.0,4.421655942175017,1
5737.0,4.333397996569753,1
5747.0,4.273268856730091,1
5757.0,4.2430757509285035,1
5767.0,4.231279040637635,1
5777.0,4.215255189495615,1
5787.0,4.167771360984355,1
5797.0,4.064197471714971,1
5807.0,3.8877160145780914,1
5817.0,3.6318188194653303,1
5827.0,3.300632310197906,1
5837.0,2.907847152186087,1
5847.0,2.474861088048774,1
5857.0,2.0285848731615226,1
5867.0,1.5992651813322216,1
5877.0,1.2183922523312751,0
5887.0,0.9156777541853056,0
5897.0,0.7248442980993806,0
5907.0,0.6549884645099209,0
5917.0,0.6414806952306487,0
5927.0,0.6434901613875377,0
5937.0,0.6373806487647685,0
5947.0,0.6163904330203583,0
5957.0,0.5832429892644072,0
5967.0,0.5445344572382814,0
5977.0,0.5072646574354467,0
5987.0,0.4764903972199165,0
5997.0,0.4539543111192963,0
6007.0,0.43825643916358037,0
6017.0,0.42644614198570385,0
6027.0,0.4157848703958752,0
6037.0,0.40467382724690143,0
6047.0,0.39275749684026096,0
6057.0,0.3806146460707383,0
6067.0,0.3692983803265883,0
6077.0,0.3598180761856661,0
6087.0,0.35688349299903177,0
6097.0,0.3581540514953362,0
6107.0,0.36032844024563143,0
6117.0,0.362174358819984,0
6127.0,0.3627117662560413,0
6137.0,0.3649293499080458,0
6147.0,0.3683068299273745,0
6157.0,0.3690485967630697,0
6167.0,0.36738926442521896,0
6177.0,0.36384205086307164,0
6187.0,0.35900724692538505,0
6197.0,0.35340386852328,0
6207.0,0.34735775423922854,0
6217.0,0.34097995914135004,0
6227.0,0.3342657714408891,0
6237.0,0.32732472113597383,0
6247.0,0.320709946813772,0
6257.0,0.31576587762484387,0
6267.0,0.3148639676700209,0
6277.0,0.3213014642079069,0
6287.0,0.339773067975519,0
6297.0,0.3756968408943676,0
6307.0,0.4264654694586051,0
6317.0,0.4921163450516015,0
6327.0,0.5653387540338415,0
6337.0,0.6411077811952446,0
6347.0,0.7146954453639768,0
6357.0,0.7820173414636638,0
6367.0,0.8398291433414079,0
6377.0,0.8859332894882026,0
6387.0,0.9194902202851072,0
6397.0,0.9414513716738748,0
6407.0,0.954982187064725,0
6417.0,0.9655345743168231,0
6427.0,0.9801369432743307,0
6437.0,1.0057562722390823,0
6447.0,1.0471811511379374,0
6457.0,1.1053618445055584,0
6467.0,1.1770914076233723,0
6477.0,1.2561030689092534,0
6487.0,1.3349061864476395,0
6497.0,1.4066413402303168,0
6507.0,1.466432056024349,0
6517.0,1.511963103251032,0
6527.0,1.5433398046287299,0
6537.0,1.5624857711430162,0
6547.0,1.5723571999587524,0
6557.0,1.5761799303088408,0
6567.0,1.5768297667241895,0
6577.0,1.5764107761989439,0
6587.0,1.5760444796378805,0
6597.0,1.575852153078126,0
6607.0,1.5750883533655284,0
6617.0,1.5723828547359064,0
6627.0,1.5660730612299414,0
6637.0,1.5546249292980328,0
6647.0,1.5371185153963411,0
6657.0,1.5137278825586986,0
6667.0,1.4860783480453912,0
6677.0,1.4573197204032886,0
6687.0,1.4317206370000786,0
6697.0,1.4136235026274764,0
6707.0,1.4058076168235571,0
6717.0,1.4077564478607953,0
6727.0,1.414806015567363,0
6737.0,1.4190279008586906,0
6747.0,1.41165831419314,0
6757.0,1.3858873732169013,0
6767.0,1.3388713196008877,0
6777.0,1.2725164091603842,0
6787.0,1.1930926880304904,0
6797.0,1.1098669336068716,0
6807.0,1.0329003613600305,0
6817.0,0.9703244999419373,0
6827.0,0.9260677299873792,0
6837.0,0.8993463855821067,0
6847.0,0.8860482126324195,0
6857.0,0.8806746025234145,0
6867.0,0.8777095281119557,0
6877.0,0.8723439315151886,0
6887.0,0.8609268239135537,0
6897.0,0.8413283521694229,0
6907.0,0.8131931558032395,0
6917.0,0.778031168416979,0
6927.0,0.7391040889548574,0
6937.0,0.7010302850807828,0
6947.0,0.6689881387056092,0
6957.0,0.6474711570610047,0
6967.0,0.6388349760357057,0
6977.0,0.6421946137858401,0
6987.0,0.6532668107098184,0
6997.0,0.6655044468871586,0
7007.0,0.672192355340365,0
7017.0,0.6684758262706746,0
7027.0,0.6525699196612612,0
7037.0,0.6260857289567832,0
7047.0,0.5936334929901984,0
7057.0,0.5618058493357603,0
7067.0,0.5376557526525828,0
7077.0,0.5268326821821272,0
7087.0,0.5317268975839812,0
7097.0,0.5505770250949297,0
7107.0,0.5784037513356729,0
7117.0,0.6091820408092457,0
7127.0,0.6378024574779173,0
7137.0,0.6610151304585352,0
7147.0,0.6774905742556427,0
7157.0,0.6874315371452079,0
7167.0,0.6920389130186985,0
7177.0,0.6929874534069606,0
7187.0,0.6920008129166255,0
7197.0,0.6905737631930469,0
7207.0,0.6898328967572843,0
7217.0,0.6904758988089641,0
7227.0,0.6927275964265275,0
7237.0,0.6963000615709253,0
7247.0,0.7003885232667941,0
7257.0,0.703735870416456,0
7267.0,0.7047836770267926,0
7277.0,0.7019272918345707,0
7287.0,0.6938839090066407,0
7297.0,0.6801381895885662,0
7307.0,0.6613624477863251,0
7317.0,0.6396423666262846,0
7327.0,0.618291465758726,0
7337.0,0.6010583473030535,0
7347.0,0.5907388350127579,0
7357.0,0.5876938341328865,0
7367.0,0.5892736197439056,0
7377.0,0.5907985698510817,0
7387.0,0.5874299544831831,0
7397.0,0.575686661112708,0
7407.0,0.5541398806803159,0
7417.0,0.52355965565112,0
7427.0,0.48683324848191045,0
7437.0,0.4522055430006981,0
7447.0,0.43402988552096183,0
7457.0,0.42066651481600187,0
7467.0,0.4129703749383141,0
7477.0,0.41270871284734134,0
7487.0,0.4145584679005738,0
7497.0,0.41441882174593925,0
7507.0,0.4120304476383766,0
7517.0,0.4079295464209691,0
7527.0,0.408058902080411,0
7537.0,0.43295008258557444,0
7547.0,0.4738647048892227,0
7557.0,0.5454444568438208,0
7567.0,0.6374346349611348,0
7577.0,0.7384366516154078,0
7587.0,0.8422475092096349,0
7597.0,0.9443219654170387,0
7607.0,1.0419735915390596,0
7617.0,1.1340859580076657,0
7627.0,1.220531319044217,0
7637.0,1.3014923657114954,0
7647.0,1.376861613305112,0
7657.0,1.4458637616760572,0
7667.0,1.5070147585834273,0
7677.0,1.558466975513754,0
7687.0,1.598668112630582,0
7697.0,1.627113126081266,0
7707.0,1.644871799242598,0
7717.0,1.6546036288070103,0
7727.0,1.6599535668544163,0
7737.0,1.6645110767621025,0
7747.0,1.6707732406521443,0
7757.0,1.6795921094494395,0
7767.0,1.690325747623505,0
7777.0,1.701510914965147,0
7787.0,1.711620848415098,0
7797.0,1.7195163202600534,0
7807.0,1.7244576280118997,0
7817.0,1.7258185756702615,0
7827.0,1.7227701833665954,0
7837.0,1.7141432429326904,0
7847.0,1.6985180409773526,0
7857.0,1.6744533265722086,0
7867.0,1.640731054769991,0
7877.0,1.5965586093319242,0
7887.0,1.5417902546407711,0
7897.0,1.4773337505338624,0
7907.0,1.40590584045907,0
7917.0,1.333104358011131,0
7927.0,1.2683186400584094,0
7937.0,1.224335739882309,0
7947.0,1.2141834688264244,0
7957.0,1.2454388089016244,0
7967.0,1.3158482812309957,0
7977.0,1.4140629922511256,0
7987.0,1.5241793555607226,0
7997.0,1.6304914310116452,0
8007.0,1.7208850601168377,0
8017.0,1.7889133175321996,0
8027.0,1.834541128697417,0
8037.0,1.8629305714995592,0
8047.0,1.8809419280106572,0
8057.0,1.893249226912713,0
8067.0,1.90099702573452,0
8077.0,1.9032376054229558,0
8087.0,1.8997459147380904,0
8097.0,1.8942907307494314,0
8107.0,1.8970064899347547,0
8117.0,1.9232826234637481,0
8127.0,1.9869623011573845,0
8137.0,2.091255423107893,0
8147.0,2.226087347642723,0
8157.0,2.373439650635402,1
8167.0,2.5143866224695923,1
8177.0,2.6339983524684887,1
8187.0,2.7237765030035352,1
8197.0,2.7820047082608275,1
8207.0,2.8123584686343044,1
8217.0,2.8212702459630954,1
8227.0,2.814887400189146,1
8237.0,2.7967287316823857,1
8247.0,2.766976774510489,1
8257.0,2.7236125523697847,1
8267.0,2.6647054092861158,1
8277.0,2.5907099993249547,1
8287.0,2.5057775133296296,1
8297.0,2.4175719392518675,1
8307.0,2.335591829617699,1
8317.0,2.268485849143976,1
8327.0,2.221378231791039,1
8337.0,2.1946068722486918,1
8347.0,2.184920791195987,1
8357.0,2.188687723380524,1
8367.0,2.2049510278277533,1
8377.0,2.235935177680548,1
8387.0,2.2842636755127073,1
8397.0,2.348579596381535,1
8407.0,2.4206408767068517,1
8417.0,2.485995609729856,1
8427.0,2.527879349668585,1
8437.0,2.5323053479826205,1
8447.0,2.4923812514026147,1
8457.0,2.410783474506278,1
8467.0,2.2999952166236346,1
8477.0,2.1800870283050853,1
8487.0,2.073850692890205,1
8497.0,1.9998376151880124,1
8507.0,1.9659541875765494,1
8517.0,1.9678175354654783,1
8527.0,1.9932855834429835,1
8537.0,2.0294369351093122,1
8547.0,2.067391579982803,1
8557.0,2.1035382455570417,1
8567.0,2.138238407112044,1
8577.0,2.1737323104885857,1
8587.0,2.241440233087261,1
8597.0,2.3109345553762375,1
8607.0,2.3791111242528467,1
8617.0,2.442221768910893,1
8627.0,2.496442519113482,1
8637.0,2.5384100545309427,1
8647.0,2.565608951641673,1
8657.0,2.5765672313014827,1
8667.0,2.570832780543789,1
8677.0,2.5487316852315915,1
8687.0,2.5110068553291582,1
8697.0,2.4585682588455247,1
8707.0,2.3926326716470925,1
8717.0,2.3153685162120956,1
8727.0,2.2307992386253943,1
8737.0,2.145349568273911,1
8747.0,2.0673275975470142,1
8757.0,2.0050402883939746,1
8767.0,1.964099072349327,1
8777.0,1.9452598625543,1
8787.0,1.9440521780627145,1
8797.0,1.9523491241706066,1
8807.0,1.9608732447807078,1
8817.0,1.9614009247640274,1
8827.0,1.948053007215214,1
8837.0,1.9177490959775367,1
8847.0,1.870124334994864,1
8857.0,1.807052552108793,1
8867.0,1.731767988102284,1
8877.0,1.6477029686722182,1
8887.0,1.582508652932969,1
8897.0,1.516552952166811,1
8907.0,1.4483937430172984,1
8917.0,1.3793047327261576,1
8927.0,1.3123262603616155,0
8937.0,1.2517913649719583,0
8947.0,1.2020710772779992,0
8957.0,1.1663541797759323,0
8967.0,1.1462307778210934,0
8977.0,1.1427517098154918,0
8987.0,1.1587616883998986,0
8997.0,1.2003905481721988,0
9007.0,1.2750317508605007,0
9017.0,1.3862920777941747,0
9027.0,1.5303186546762997,0
9037.0,1.6962432106260914,0
9047.0,1.8691991288021512,0
9057.0,2.0552488706668894,0
9067.0,2.227822160830737,0
9077.0,2.366275860078715,1
9087.0,2.465935707582668,1
9097.0,2.52816877138926,1
9107.0,2.5597503117570417,1
9117.0,2.5711653153554135,1
9127.0,2.573836015908932,1
9137.0,2.5768342568340366,1
9147.0,2.5843332353688258,1
9157.0,2.5951206014698376,1
9167.0,2.604488250753513,1
9177.0,2.6074387388700844,1
9187.0,2.6015407439973592,1
9197.0,2.588173036922306,1
9207.0,2.571779332425586,1
9217.0,2.566297955076533,1
9227.0,2.566787546129933,1
9237.0,2.569436930124735,1
9247.0,2.573474365903377,1
9257.0,2.5769489835652424,1
9267.0,2.576956393113285,1
9277.0,2.5696833368264915,1
9287.0,2.5504470946662363,1
9297.0,2.5256876871163776,1
9307.0,2.4818966291279523,1
9317.0,2.41285609848354,1
9327.0,2.3146594994851357,1
9337.0,2.1864318124562208,1
9347.0,2.0314614704093668,1
9357.0,1.8579087744055285,1
9367.0,1.7021001725736347,1
9377.0,1.5657643037415747,1
9387.0,1.4596061527490742,1
9397.0,1.3899396376507833,1
9407.0,1.3797932875824577,1
9417.0,1.3807812238678343,1
9427.0,1.371849159417948,1
9437.0,1.3427056088861629,1
9447.0,1.2960577922902976,0
9457.0,1.2539665113872906,0
9467.0,1.2002969117903857,0
9477.0,1.1433689648660699,0
9487.0,1.0913340320199785,0
9497.0,1.0488447508775305,0
9507.0,1.0307552383826026,0
9517.0,1.0340887629875781,0
9527.0,1.0373096358475857,0
9537.0,1.0370215039544832,0
9547.0,1.0331320430071336,0
9557.0,1.0281493548366556,0
9567.0,1.0253626862195875,0
9577.0,1.0267324992219962,0
9587.0,1.0315368379204701,0
9597.0,1.0364769992021425,0
9607.0,1.0370086264622236,0
9617.0,1.029028921107615,0
9627.0,1.0102022567418116,0
9637.0,0.9806420449903437,0
9647.0,0.9428967369864809,0
9657.0,0.9012267321925842,0
9667.0,0.8602559931779273,0
9677.0,0.8325590419535902,0
9687.0,0.8221222054687654,0
9697.0,0.8130946026633359,0
9707.0,0.8030226428258055,0
9717.0,0.7906811212917633,0
9727.0,0.7765665170940467,0
9737.0,0.7624027403096285,0
9747.0,0.7500903307635545,0
9757.0,0.7407072497013982,0
9767.0,0.7340428820871889,0
9777.0,0.7287974942517457,0
9787.0,0.7232237113227101,0
9797.0,0.7158430396331991,0
9807.0,0.7059499751759027,0
9817.0,0.6937785819627005,0
9827.0,0.6803414801156403,0
9837.0,0.6670387230905099,0
9847.0,0.6551912541568308,0
9857.0,0.6456754563915805,0
9867.0,0.6387869830102391,0
9877.0,0.6343353167808132,0
9887.0,0.6318372044681291,0
9897.0,0.6306376412160215,0
9907.0,0.6298655843855667,0
9917.0,0.6282678181042689,0
9927.0,0.6240793299429015,0
9937.0,0.6151178930663903,0
9947.0,0.5992056068485874,0
9957.0,0.5748630433651191,0
9967.0,0.5420846997065079,0
9977.0,0.5123199292425953,0
9987.0,0.4882219386880392,0
9997.0,0.46892710271709276,0
10007.0,0.45841751291306154,0
10017.0,0.45825880385284123,0
10027.0,0.46693398824237237,0
10037.0,0.4816143713920414,0
10047.0,0.5006798264546126,0
10057.0,0.5248914112599199,0
10067.0,0.5568460858011413,0
10077.0,0.5993284221474962,0
10087.0,0.6721590433280925,0
10097.0,0.7582293158951556,0
10107.0,0.8475797355326992,0
10117.0,0.9321495059666289,0
10127.0,1.0052719039765015,0
10137.0,1.062654871967076,0
10147.0,1.1027896304714275,0
10157.0,1.1268165293295571,0
10167.0,1.137915433903582,0
10177.0,1.1403430237856476,0
10187.0,1.1383294821832721,0
10197.0,1.1351513610208743,0
10207.0,1.1327190756329795,0
10217.0,1.131849271828315,0
10227.0,1.133061435362661,0
10237.0,1.1374282980269355,0
10247.0,1.1469057195692984,0
10257.0,1.1637650068447989,0
10267.0,1.1892724857877792,0
10277.0,1.2223940582413626,0
10287.0,1.2594572721466677,0
10297.0,1.2950706735802717,0
10307.0,1.3238075349211265,0
10317.0,1.341898423578421,0
10327.0,1.348324924110791,0
10337.0,1.3449099849983983,0
10347.0,1.3352382531688056,0
10357.0,1.3326218641057381,0
10367.0,1.3380550292712245,0
10377.0,1.3397206942246205,0
10387.0,1.3344635074498186,0
10397.0,1.3187234183041907,0
10407.0,1.3119870740892174,0
10417.0,1.2913631269919041,0
10427.0,1.2709952522995194,0
10437.0,1.250347185611246,0
10447.0,1.2332334510019478,0
10457.0,1.2253289731835677,0
10467.0,1.229848161491557,0
10477.0,1.2469169558363051,0
10487.0,1.274028957073414,0
10497.0,1.3070708801630309,0
10507.0,1.3414183675429048,0
10517.0,1.372780165302034,0
10527.0,1.3977203124437763,0
10537.0,1.4143609234444778,0
10547.0,1.4387958110702614,0
10557.0,1.4648970633220673,0
10567.0,1.5006735655534986,0
10577.0,1.5808902257923463,0
10587.0,1.6849637777581703,0
10597.0,1.8174131765987211,0
10607.0,1.9728292651712258,0
10617.0,2.1223425729764935,0
10627.0,2.2494349660664277,1
10637.0,2.350940350882197,1
10647.0,2.4181866376453636,1
10657.0,2.4414954967065636,1
10667.0,2.43416812598015,1
10677.0,2.420199261959259,1
10687.0,2.4287617991576327,1
10697.0,2.4838674405894756,1
10707.0,2.5932712933096496,1
10717.0,2.7443934661440927,1
10727.0,2.9103198460074218,1
10737.0,3.0608163334372605,1
10747.0,3.172282369472791,1
10757.0,3.23442124069829,1
10767.0,3.2535005119017546,1
10777.0,3.251566255575617,1
10787.0,3.2600092826596008,1
10797.0,3.30732972344558,1
10807.0,3.406140561666498,1
10817.0,3.5476851431746135,1
10827.0,3.706950594565347,1
10837.0,3.853691180200466,1
10847.0,3.9628532976089064,1
10857.0,4.021068173551349,1
10867.0,4.029068732393764,1
10877.0,4.000932283945162,1
10887.0,3.9606839392120197,1
10897.0,3.936535208090312,1
10907.0,3.953949770310397,1
10917.0,4.125377509094997,1
10927.0,4.348885679550068,1
10937.0,4.6070976340432015,1
10947.0,4.879876116158745,1
10957.0,5.144545773150819,1
10967.0,5.379479390487711,1
10977.0,5.567304932823834,1
10987.0,5.6968894029373915,1
10997.0,5.764318539067439,1
11007.0,5.773383031314029,1
11017.0,5.735669012830137,1
11027.0,5.669666602603387,1
11037.0,5.597888828356551,1
11047.0,5.541447645939887,1
11057.0,5.5131943214326045,1
11067.0,5.512604641688505,1
11077.0,5.52587511003052,1
11087.0,5.5318833315798335,1
11097.0,5.511039434490858,1
11107.0,5.4529461240435015,1
11117.0,5.362820460429528,1
11127.0,5.279780181460792,1
11137.0,5.19853716415415,1
11147.0,5.134942724716528,1
11157.0,5.096380465321227,1
11167.0,5.078249271318253,1
11177.0,5.065012133908089,1
11187.0,5.034873205488998,1
11197.0,4.965651538750118,1
11207.0,4.8396943411129865,1
11217.0,4.646919913070951,1
11227.0,4.386091264989,1
11237.0,4.064795205678497,1
11247.0,3.6985959998823486,1
11257.0,3.3545519968511295,1
11267.0,3.0027075501836915,1
11277.0,2.71696301249936,1
11287.0,2.4671482086957752,1
11297.0,2.2968282456750133,1
11307.0,2.181514514474797,1
11317.0,2.095047663949897,1
11327.0,2.041085622433433,1
11337.0,2.0138174159145024,1
11347.0,2.000192395770065,1
11357.0,1.9875060462607208,1
11367.0,1.9672754896825224,1
11377.0,1.934585771208683,1
11387.0,1.8867870162982046,1
11397.0,1.8241259159338175,1
11407.0,1.7877365706017252,1
11417.0,1.7273633160153883,1
11427.0,1.6462055467727579,1
11437.0,1.5690586601646341,1
11447.0,1.4993719152965121,1
11457.0,1.4477018418272563,1
11467.0,1.4175707282228405,1
11477.0,1.4040130848145291,1
11487.0,1.395905566988835,1
11497.0,1.3803559684469255,1
11507.0,1.3470292977786782,1
11517.0,1.290907493113401,0
11527.0,1.2129049402129017,0
11537.0,1.1187647151278268,0
11547.0,1.0170743058186615,0
11557.0,0.9171594253132962,0
11567.0,0.8466154529456251,0
11577.0,0.7890573166134675,0
11587.0,0.7425649787242767,0
11597.0,0.7112517549848838,0
11607.0,0.6966444982120022,0
11617.0,0.6878424913625807,0
11627.0,0.6781497292394266,0
11637.0,0.6647307858970466,0
11647.0,0.6457370887411478,0
11657.0,0.620013013450094,0
11667.0,0.5896115932632288,0
11677.0,0.5612562900764493,0
11687.0,0.5346683838746097,0
11697.0,0.5061807443904132,0
11707.0,0.4771418486297143,0
11717.0,0.44989280717748115,0
11727.0,0.42651575444300677,0
11737.0,0.40803585370454576,0
11747.0,0.39401038129888466,0
11757.0,0.3830222706164391,0
11767.0,0.3736540883912403,0
11777.0,0.3713171730559829,0
11787.0,0.37429948426590653,0
11797.0,0.37736359361079963,0
11807.0,0.3808552203773653,0
11817.0,0.38517040043629924,0
11827.0,0.3901580664467884,0
11837.0,0.39493267418631006,0
11847.0,0.39812641249453906,0
11857.0,0.3983673386378738,0
11867.0,0.39470708677337485,0
11877.0,0.386848869767757,0
11887.0,0.37537643760449046,0
11897.0,0.3677951863265422,0
11907.0,0.3584146329730872,0
11917.0,0.3480223450535802,0
11927.0,0.34251906931365295,0
11937.0,0.3398862047415202,0
11947.0,0.3355584132025265,0
11957.0,0.33279769340056886,0
11967.0,0.3292874758062842,0
11977.0,0.32457773425514513,0
11987.0,0.3258802414187695,0
11997.0,0.32614446767609884,0
12007.0,0.32551999156187506,0
12017.0,0.3243232175724856,0
12027.0,0.32272944476472537,0
12037.0,0.32061006405018105,0
12047.0,0.3200995804718166,0
12057.0,0.3228951365830744,0
12067.0,0.3245755902588423,0
12077.0,0.32535222760677474,0
12087.0,0.3255657085183975,0
12097.0,0.32543067610154497,0
12107.0,0.32486698641942785,0
12117.0,0.3235413600157816,0
12127.0,0.3210961991531483,0
12137.0,0.31741488214349284,0
12147.0,0.3127584545046833,0
12157.0,0.30987301669299977,0
12167.0,0.3093887472953428,0
12177.0,0.30916046849453677,0
12187.0,0.3090949416385205,0
12197.0,0.308714178374255,0
12207.0,0.30739679475377335,0
12217.0,0.3046704484350855,0
12227.0,0.3004183134420134,0
12237.0,0.2949226649447558,0
12247.0,0.288738839093488,0
12257.0,0.2824490085497681,0
12267.0,0.2763831061493862,0
12277.0,0.2704225897842941,0
12287.0,0.2640108585811505,0
12297.0,0.25641658158320974,0
12307.0,0.2471427555331744,0
12317.0,0.23629906729248823,0
12327.0,0.22480092389423237,0
12337.0,0.22087926416107187,0
12347.0,0.2175632497495918,0
12357.0,0.21245768681402433,0
12367.0,0.20530735477066414,0
12377.0,0.20531874971003483,0
12387.0,0.20558418254382366,0
12397.0,0.20546321811733503,0
12407.0,0.20563766546820653,0
12417.0,0.20742516285844514,0
12427.0,0.2119329469140139,0
12437.0,0.21887546165103028,0
12447.0,0.22626519767454262,0
12457.0,0.23157779179495006,0
12467.0,0.23556919875049848,0
12477.0,0.2404496455873319,0
12487.0,0.24349914309132592,0
12497.0,0.24823015163940257,0
12507.0,0.2610439961108487,0
12517.0,0.28910940558981607,0
12527.0,0.33992312708249756,0
12537.0,0.4015963354906435,0
12547.0,0.466248270384972,0
12557.0,0.5272254840976878,0
12567.0,0.5801815445939434,0
12577.0,0.6231868504050405,0
12587.0,0.6563471375742678,0
12597.0,0.6811382575109034,0
12607.0,0.6996435751726305,0
12617.0,0.7138949963972939,0
12627.0,0.7254612615603124,0
12637.0,0.7353072891770153,0
12647.0,0.7438469214349195,0
12657.0,0.7545522617494802,0
12667.0,0.7707023424212716,0
12677.0,0.7855518272780078,0
12687.0,0.803744837527188,0
12697.0,0.8335903369557003,0
12707.0,0.862116055694461,0
12717.0,0.8889926092272136,0
12727.0,0.9141010277163393,0
12737.0,0.9375800087244328,0
12747.0,0.9598744413833338,0
12757.0,0.9817193069110042,0
12767.0,1.0050978830336812,0
12777.0,1.0464966538288578,0
12787.0,1.083153388008584,0
12797.0,1.1130102903897225,0
12807.0,1.1345278215225052,0
12817.0,1.1469278846305353,0
12827.0,1.1504050439237168,0
12837.0,1.1461699025369612,0
12847.0,1.136216947314476,0
12857.0,1.1228326933761592,0
12867.0,1.1080305796730001,0
12877.0,1.093191759519618,0
12887.0,1.0790898295542963,0
12897.0,1.066223068300044,0
12907.0,1.055164827790116,0
12917.0,1.0466423778631369,0
12927.0,1.041265915144645,0
12937.0,1.0390808611051188,0
12947.0,1.0392157590840725,0
12957.0,1.0573616753322246,0
12967.0,1.0769711740585475,0
12977.0,1.0918753028276698,0
12987.0,1.0982874394578308,0
12997.0,1.0941180355001112,0
13007.0,1.0798683480439342,0
13017.0,1.0591835458629077,0
13027.0,1.0429512528194695,0
13037.0,1.0490729871675997,0
13047.0,1.067051988085823,0
13057.0,1.1281315456576864,0
13067.0,1.2076783932946036,0
13077.0,1.295344979706273,0
13087.0,1.3823112831054343,0
13097.0,1.4606909988176588,0
13107.0,1.524865472797986,0
13117.0,1.5721022278681405,0
13127.0,1.6025355523041145,0
13137.0,1.618719285799432,0
13147.0,1.624955722697149,0
13157.0,1.6265262252689128,0
13167.0,1.6288265782454934,0
13177.0,1.636345534103024,0
13187.0,1.6515688715276897,0
13197.0,1.6741769505326123,0
13207.0,1.7009853014023404,0
13217.0,1.7267980170545472,0
13227.0,1.7459638824257349,0
13237.0,1.7541910009497172,0
13247.0,1.750095926012532,0
13257.0,1.735988460257206,0
13267.0,1.7175059935113741,0
13277.0,1.7019461578462187,0
13287.0,1.6955937688564313,0
13297.0,1.7009692765986557,0
13307.0,1.7153130791738112,0
13317.0,1.731149840509045,0
13327.0,1.757576197954728,0
13337.0,1.7782447353369941,0
13347.0,1.7806671584181673,0
13357.0,1.7606361116261513,0
13367.0,1.717731319144242,0
13377.0,1.655683311958008,0
13387.0,1.5898055801870106,0
13397.0,1.550717587396716,0
13407.0,1.519700157605454,0
13417.0,1.5049811622292744,0
13427.0,1.5090891601380485,0
13437.0,1.528413964128718,0
13447.0,1.5559024975219264,0
13457.0,1.5849930088783064,0
13467.0,1.6127812656072926,0
13477.0,1.6412476217323209,0
13487.0,1.6759626245456851,0
13497.0,1.7225399001025856,0
13507.0,1.7825326684860032,0
13517.0,1.8915817700034816,0
13527.0,1.9970542621957776,0
13537.0,2.087901995749762,0
13547.0,2.1577912579833027,0
13557.0,2.2048038559495007,0
13567.0,2.230736583252751,0
13577.0,2.239326804091447,1
13587.0,2.234458720356736,1
13597.0,2.219245611610819,1
13607.0,2.1962857676870837,1
13617.0,2.1731204371809523,1
13627.0,2.1597961244115527,1
13637.0,2.148890895329928,1
13647.0,2.1439762183002458,1
13657.0,2.148363317031233,1
13667.0,2.163572994782871,1
13677.0,2.2145164989473676,1
13687.0,2.273711189428403,1
13697.0,2.3303903866731237,1
13707.0,2.389882644210899,1
13717.0,2.475381623193354,1
13727.0,2.5359055685772174,1
13737.0,2.5686335939680993,1
13747.0,2.5756266755356454,1
13757.0,2.563132611817519,1
13767.0,2.5401226505655283,1
13777.0,2.516097969831759,1
13787.0,2.498782306973834,1
13797.0,2.4927136160779155,1
13807.0,2.529281343947143,1
13817.0,2.5800196620204465,1
13827.0,2.6367081980302616,1
13837.0,2.695210870829303,1
13847.0,2.7505958066765808,1
13857.0,2.7972961210327907,1
13867.0,2.83033611672633,1
13877.0,2.847127978147014,1
13887.0,2.8488689561590728,1
13897.0,2.8407266248997454,1
13907.0,2.8305058869147475,1
13917.0,2.826087752643449,1
13927.0,2.832490327923051,1
13937.0,2.8497308389034766,1
13947.0,2.872451432790809,1
13957.0,2.8914747054665244,1
13967.0,2.896599854048123,1
13977.0,2.879621713837892,1
13987.0,2.8367703612803616,1
13997.0,2.7701281464973224,1
14007.0,2.6877777752046303,1
14017.0,2.6180088805160904,1
14027.0,2.5588909215496924,1
14037.0,2.516488518181795,1
14047.0,2.5107155141060584,1
14057.0,2.5159273525604413,1
14067.0,2.5132080090975526,1
14077.0,2.4899478630779663,1
14087.0,2.437557431195538,1
14097.0,2.3676368422332232,1
14107.0,2.2632837730853215,1
14117.0,2.129466738696114,1
14127.0,1.9767855359032276,1
14137.0,1.8196858928513642,1
14147.0,1.6739657817343985,1
14157.0,1.5536098830545777,1
14167.0,1.4673226373178467,1
14177.0,1.4159517289616792,1
14187.0,1.3924844814142618,1
14197.0,1.3850275436767516,1
14207.0,1.3809617607046794,1
14217.0,1.370076795389099,1
14227.0,1.346000745108833,1
14237.0,1.3064368509374007,0
14247.0,1.2528245888519065,0
14257.0,1.1896935740164356,0
14267.0,1.125920089724905,0
14277.0,1.0684343966765735,0
14287.0,1.0228630924404247,0
14297.0,0.9879205530416518,0
14307.0,0.9650315451018989,0
14317.0,0.9533405272248952,0
14327.0,0.9540394392176806,0
14337.0,0.9544560297014806,0
14347.0,0.9483516898919011,0
14357.0,0.9309088944106507,0
14367.0,0.8989429042022847,0
14377.0,0.8509490833992321,0
14387.0,0.7912492341793604,0
14397.0,0.7202610631441844,0
14407.0,0.6384990108443612,0
14417.0,0.5512393970820844,0
14427.0,0.46514385064747876,0
14437.0,0.400606294010596,0
14447.0,0.35274722335074393,0
14457.0,0.32564535565206176,0
14467.0,0.3101331671487497,0
14477.0,0.3030345391124383,0
14487.0,0.30141928600128914,0
14497.0,0.30300293471126555,0
14507.0,0.30644615267721115,0
14517.0,0.3111076786112748,0
14527.0,0.31657053001018925,0
14537.0,0.32229781304099964,0
14547.0,0.3275628820678351,0
14557.0,0.33157978867208693,0
14567.0,0.3336876224505529,0
14577.0,0.3334875187622338,0
14587.0,0.3309005486597311,0
14597.0,0.3261586206425268,0
14607.0,0.3197520221808109,0
14617.0,0.3123439439288236,0
14627.0,0.30464619199124465,0
14637.0,0.2972585121501991,0
14647.0,0.29050822713989083,0
14657.0,0.2843575375174426,0
14667.0,0.2784416623912633,0
14677.0,0.27225390683831663,0
14687.0,0.2654220159579783,0
14697.0,0.26224028662026255,0
14707.0,0.2637397480213656,0
14717.0,0.2650254366021637,0
14727.0,0.26708323665122796,0
14737.0,0.27074972634687205,0
14747.0,0.2764307914700871,0
14757.0,0.2839794484249002,0
14767.0,0.29266334124281157,0
14777.0,0.30132305440160845,0
14787.0,0.3087781450412393,0
14797.0,0.3142775512749755,0
14807.0,0.31775938064873577,0
14817.0,0.31982434412815525,0
14827.0,0.32140494066992914,0
14837.0,0.3232136716667384,0
14847.0,0.32529441806905235,0
14857.0,0.3305001825011751,0
14867.0,0.3344299298323803,0
14877.0,0.33701437515918803,0
14887.0,0.33886263111105686,0
14897.0,0.3408295352671786,0
14907.0,0.34352372975485046,0
14917.0,0.34702654340938666,0
14927.0,0.35092851779537093,0
14937.0,0.3545617337261757,0
14947.0,0.3572899909099079,0
14957.0,0.3587849919174634,0
14967.0,0.35923040293021524,0
14977.0,0.35939251291635155,0
14987.0,0.36052921918103903,0
14997.0,0.3641565845363033,0
15007.0,0.3716896503311164,0
15017.0,0.38395241967029226,0
15027.0,0.40067012671614805,0
15037.0,0.43610653224215,0
15047.0,0.4711976539845846,0
15057.0,0.5016414517906747,0
15067.0,0.5245991424557448,0
15077.0,0.5388356150115597,0
15087.0,0.5450993828499918,0
15097.0,0.5461312305746686,0
15107.0,0.5462687054893753,0
15117.0,0.5504802776280776,0
15127.0,0.5626715776823765,0
15137.0,0.5840102200340527,0
15147.0,0.6128282502877697,0
15157.0,0.6460999397775734,0
15167.0,0.680903687173072,0
15177.0,0.7150754403792023,0
15187.0,0.7472956650750305,0
15197.0,0.77697203244665,0
15207.0,0.8040759462371827,0
15217.0,0.8289594563535774,0
15227.0,0.8521588649025059,0
15237.0,0.8742077928709084,0
15247.0,0.8954748982964589,0
15257.0,0.9160164775747754,0
15267.0,0.9354382498087619,0
15277.0,0.9579315797320677,0
15287.0,0.9831435988322107,0
15297.0,1.001947999101923,0
15307.0,1.012066614709318,0
15317.0,1.0155755696619777,0
15327.0,1.0124206187669378,0
15337.0,1.0013366211263335,0
15347.0,0.9869445700961088,0
15357.0,0.9745070498718642,0
15367.0,0.9718853568752803,0
15377.0,0.9940342373433848,0
15387.0,1.0291275310777064,0
15397.0,1.072545654827525,0
15407.0,1.1178974509921102,0
15417.0,1.1590926644646202,0
15427.0,1.1918367646033585,0
15437.0,1.2239913586719813,0
15447.0,1.2553615745465647,0
15457.0,1.281769412333594,0
15467.0,1.303613678417456,0
15477.0,1.3203334471963246,0
15487.0,1.3304203778381962,0
15497.0,1.3323356112726077,0
15507.0,1.3270648468068686,0
15517.0,1.3244806832594715,0
15527.0,1.3165883020330584,0
15537.0,1.324909521901764,0
15547.0,1.3422458198629732,0
15557.0,1.3642801632936097,0
15567.0,1.401115525739721,0
15577.0,1.452498083569985,0
15587.0,1.499315164191216,0
15597.0,1.5352514108945297,0
15607.0,1.5577110789776611,0
15617.0,1.568015323507932,0
15627.0,1.5707117594530513,0
15637.0,1.5720949576897976,0
15647.0,1.578061942190442,0
15657.0,1.591790322277597,0
15667.0,1.6123041948596897,0
15677.0,1.6349408253064714,0
15687.0,1.6535567912898546,0
15697.0,1.6631297074460607,0
15707.0,1.6614217985647248,0
15717.0,1.6491693756599184,0
15727.0,1.6457152740144116,0
15737.0,1.6526811577423848,0
15747.0,1.6490429167006813,0
15757.0,1.6355807514127174,0
15767.0,1.6142587332594467,0
15777.0,1.58860480023147,0
15787.0,1.5635323066388271,0
15797.0,1.5601957033585783,0
15807.0,1.5593986938995643,0
15817.0,1.5544539842437568,0
15827.0,1.5421871828437985,0
15837.0,1.5390522116026129,0
15847.0,1.5317995330806542,0
15857.0,1.5111625048769661,0
15867.0,1.476818494318365,0
15877.0,1.4328068162576355,0
15887.0,1.4105515201660972,0
15897.0,1.4107096837336832,0
15907.0,1.413788297543147,0
15917.0,1.4218092409830554,0
15927.0,1.4331573520396477,0
15937.0,1.4438700844081995,0
15947.0,1.4500474437897068,0
15957.0,1.4495428274271485,0
15967.0,1.4423272268858098,0
15977.0,1.4300758874532695,0
15987.0,1.4255458012144588,0
15997.0,1.436969163026749,0
16007.0,1.4808821743226845,0
16017.0,1.5163210690222642,0
16027.0,1.5547007751240638,0
16037.0,1.5912123925237842,0
16047.0,1.6248364894998506,0
16057.0,1.6568757731055541,0
16067.0,1.6883845038087728,0
16077.0,1.719534858796846,0
16087.0,1.749462735105285,0
16097.0,1.776648234540104,0
16107.0,1.799505314885676,0
16117.0,1.8168076269656253,0
16127.0,1.827832644839701,0
16137.0,1.8323462883609678,0
16147.0,1.8306040601215872,0
16157.0,1.8234354785682316,0
16167.0,1.8123202842050774,0
16177.0,1.7992920816474829,0
16187.0,1.788748028913112,0
16197.0,1.7932325062592371,0
16207.0,1.7999124169930831,0
16217.0,1.8076748998210743,0
16227.0,1.8146373875670927,0
16237.0,1.8186190832225115,0
16247.0,1.817531973746551,0
16257.0,1.8096097589384994,0
16267.0,1.7935099774703764,0
16277.0,1.768373668796757,0
16287.0,1.7339053254779162,0
16297.0,1.6904750204975083,0
16307.0,1.6391933609239255,0
16317.0,1.5819035461530824,0
16327.0,1.5210762553866979,0
16337.0,1.459665830699134,0
16347.0,1.4010574083209522,0
16357.0,1.3625675056503161,0
16367.0,1.3326262141457434,0
16377.0,1.3136612289581389,0
16387.0,1.3079837984211715,0
16397.0,1.3164191936915755,0
16407.0,1.3368990378916146,0
16417.0,1.3641645605646142,0
16427.0,1.3910160867577397,0
16437.0,1.4103433565694745,0
16447.0,1.4220630021867764,0
16457.0,1.4267329494856436,0
16467.0,1.4113796025113712,0
16477.0,1.3791759688176255,0
16487.0,1.3488546246413504,0
16497.0,1.3288084590791762,0
16507.0,1.309543251082223,0
16517.0,1.2921787984779454,0
16527.0,1.2777275206876932,0
16537.0,1.2668158436218198,0
16547.0,1.2595551730645096,0
16557.0,1.2556189787229886,0
16567.0,1.2544765059309118,0
16577.0,1.2556020363954454,0
16587.0,1.2586533072355282,0
16597.0,1.262756059293319,0
16607.0,1.2676921233323892,0
16617.0,1.2726887392783093,0
16627.0,1.277185308135408,0
16637.0,1.280720147160907,0
16647.0,1.2826359475619844,0
16657.0,1.281531076633828,0
16667.0,1.2748305243563742,0
16677.0,1.2589709293236537,0
16687.0,1.2304223642311387,0
16697.0,1.1924631228573745,0
16707.0,1.1632285550035992,0
16717.0,1.1285647023615752,0
16727.0,1.09348917653262,0
16737.0,1.062806026160149,0
16747.0,1.0538513541030872,0
16757.0,1.0666625524733429,0
16767.0,1.078505295309278,0
16777.0,1.0866838066261804,0
16787.0,1.0907577376250557,0
16797.0,1.0926214513436145,0
16807.0,1.0951602179078774,0
16817.0,1.1004612761452113,0
16827.0,1.1087831053228507,0
16837.0,1.1187445712742452,0
16847.0,1.128275624653464,0
16857.0,1.1355821390694802,0
16867.0,1.1396964672379646,0
16877.0,1.1405848135715497,0
16887.0,1.1389736190245345,0
16897.0,1.1360613441035021,0
16907.0,1.1332040114007553,0
16917.0,1.1315894397238644,0
16927.0,1.1318994686280992,0
16937.0,1.134007183812093,0
16947.0,1.1368199902453027,0
16957.0,1.138388261497382,0
16967.0,1.1363125175101487,0
16977.0,1.1283364150060105,0
16987.0,1.1129110367833481,0
16997.0,1.089534264243482,0
17007.0,1.0587822256704873,0
17017.0,1.0220713918256217,0
17027.0,0.9812593378856185,0
17037.0,0.9382063439394551,0
17047.0,0.89440574439661,0
17057.0,0.8507656807271369,0
17067.0,0.8120157725486026,0
17077.0,0.7813720505343117,0
17087.0,0.7556865968146869,0
17097.0,0.735560667149016,0
17107.0,0.7132069679339386,0
17117.0,0.687769254403432,0
17127.0,0.659125644170712,0
17137.0,0.6282321334566008,0
17147.0,0.597071924738065,0
17157.0,0.5680305753296685,0
17167.0,0.5429231048541586,0
17177.0,0.5277945144198131,0
17187.0,0.5158705778094247,0
17197.0,0.5045789497372641,0
17207.0,0.49258462056697433,0
17217.0,0.47867247412516645,0
17227.0,0.46188945998768405,0
17237.0,0.4417769584531049,0
17247.0,0.41853827863994353,0
17257.0,0.39301918916539313,0
17267.0,0.36650272747509827,0
17277.0,0.3459852438285585,0
17287.0,0.3253454686569196,0
17297.0,0.3083817180301728,0
17307.0,0.2933541325522393,0
17317.0,0.2787729890563161,0
17327.0,0.27313260322704086,0
17337.0,0.26973297684434144,0
17347.0,0.26864561070112053,0
17357.0,0.26745432410988146,0
17367.0,0.2652638476639317,0
17377.0,0.261111429224146,0
17387.0,0.25428630715205325,0
17397.0,0.24468223800987143,0
17407.0,0.23299696830572675,0
17417.0,0.22067593888630238,0
17427.0,0.20960747549206507,0
17437.0,0.20675090187702633,0
17447.0,0.20934694713610508,0
17457.0,0.21239178777290424,0
17467.0,0.21387726443233201,0
17477.0,0.21373046407907462,0
17487.0,0.21268074869600329,0
17497.0,0.21194997886338046,0
17507.0,0.21261721166187852,0
17517.0,0.21653041303185472,0
17527.0,0.2212951050760153,0
17537.0,0.22586510893497447,0
17547.0,0.22893879493116498,0
17557.0,0.22947658533195847,0
17567.0,0.22713723515310938,0
17577.0,0.2224760816031462,0
17587.0,0.21683470650850534,0
17597.0,0.2119284777450286,0
17607.0,0.20923861671878596,0
17617.0,0.209454783004363,0
17627.0,0.21226866960384935,0
17637.0,0.2166250613238116,0
17647.0,0.2212262554189644,0
17657.0,0.2259457056229418,0
17667.0,0.2333751758918048,0
17677.0,0.2391553914047227,0
17687.0,0.24324412928167025,0
17697.0,0.2459588360809069,0
17707.0,0.247772663258703,0
17717.0,0.24911847463096232,0
17727.0,0.2502737547510183,0
17737.0,0.2513641350514635,0
17747.0,0.25245430335654195,0
17757.0,0.2561393442422928,0
17767.0,0.2631290038136409,0
17777.0,0.26958329660656066,0
17787.0,0.2754764863515594,0
17797.0,0.2809757651721617,0
17807.0,0.28642775205942106,0
17817.0,0.2923567506672245,0
17827.0,0.2994561453850317,0
17837.0,0.30850149796017373,0
17847.0,0.320125287327669,0
17857.0,0.3344887030498209,0
17867.0,0.3520003528250406,0
17877.0,0.37113377375990964,0
17887.0,0.38930814576340367,0
17897.0,0.40467125867028786,0
17907.0,0.41754999884074906,0
17917.0,0.4285076031923982,0
17927.0,0.4336508527821551,0
17937.0,0.4337952234152723,0
17947.0,0.4308427318083541,0
17957.0,0.42733188715836246,0
17967.0,0.4257059127102194,0
17977.0,0.42744372269947317,0
17987.0,0.4324152468889564,0
17997.0,0.43887976252485494,0
18007.0,0.45206160659707484,0
18017.0,0.4657570327496,0
18027.0,0.4750923447266189,0
18037.0,0.4822375750442486,0
18047.0,0.4998313230082048,0
18057.0,0.5135550614652677,0
18067.0,0.5245948456898494,0
18077.0,0.5356599038455754,0
18087.0,0.5491458184524822,0
18097.0,0.5663684068089516,0
18107.0,0.5919274311298892,0
18117.0,0.6230154262386756,0
18127.0,0.6519885256392719,0
18137.0,0.6743603424585243,0
18147.0,0.6869810379311352,0
18157.0,0.6893160797277176,0
18167.0,0.6840044439057654,0
18177.0,0.6762300567935211,0
18187.0,0.6716827578322464,0
18197.0,0.6738128452621617,0
18207.0,0.682297910037192,0
18217.0,0.6939702043285785,0
18227.0,0.7052300397691674,0
18237.0,0.714184290534021,0
18247.0,0.7404134053368059,0
18257.0,0.7754343182333407,0
18267.0,0.8120051386936287,0
18277.0,0.84713728680869,0
18287.0,0.8778258836306241,0
18297.0,0.9030746446422228,0
18307.0,0.9263430252896648,0
18317.0,0.9565336278469556,0
18327.0,1.0052204206988924,0
18337.0,1.080477899770445,0
18347.0,1.1825615831219745,0
18357.0,1.3443481884438573,0
18367.0,1.5272991818884303,0
18377.0,1.7084762435048075,0
18387.0,1.890850446965666,0
18397.0,2.0792526459144103,0
18407.0,2.232502888268308,0
18417.0,2.349385915268885,1
18427.0,2.4336742553334014,1
18437.0,2.4924576529592923,1
18447.0,2.5339146212971344,1
18457.0,2.565084775227303,1
18467.0,2.590342188555366,1
18477.0,2.6220411997645217,1
18487.0,2.679163637053914,1
18497.0,2.7225727494587995,1
18507.0,2.7702106503195663,1
18517.0,2.8129363649628516,1
18527.0,2.8413118957431376,1
18537.0,2.854891266965269,1
18547.0,2.8694752780798516,1
18557.0,2.89297295921731,1
18567.0,2.9270700898231308,1
18577.0,2.973080860005517,1
18587.0,3.0297787295358107,1
18597.0,3.0938889794002056,1
18607.0,3.160329649671208,1
18617.0,3.2223579862479736,1
18627.0,3.27204620710701,1
18637.0,3.301352626521287,1
18647.0,3.303672133768876,1
18657.0,3.275438370104493,1
18667.0,3.217266016835142,1
18677.0,3.134242067947507,1
18687.0,3.0351926608955937,1
18697.0,2.9309786763510832,1
18707.0,2.8320951933460115,1
18717.0,2.7461246390561422,1
18727.0,2.675906974638169,1
18737.0,2.619316243031099,1
18747.0,2.570856718838994,1
18757.0,2.538425968736693,1
18767.0,2.507060465268346,1
18777.0,2.471480907183508,1
18787.0,2.4316162338347858,1
18797.0,2.3902882646551107,1
18807.0,2.352300483703419,1
18817.0,2.322974279710075,1
18827.0,2.3246683932165166,1
18837.0,2.3319985905894867,1
18847.0,2.328121929408122,1
18857.0,2.3069663110440795,1
18867.0,2.2800442393501896,1
18877.0,2.244546367561457,1
18887.0,2.1856396016545907,1
18897.0,2.1017084726584896,1
18907.0,1.993564476300326,1
18917.0,1.8646870150650066,1
18927.0,1.7217108244658534,1
18937.0,1.596830786262445,1
18947.0,1.5152271411828107,1
18957.0,1.4728176168722813,1
18967.0,1.4735294191363781,1
18977.0,1.5031551991851284,1
18987.0,1.550073045429872,1
18997.0,1.601895530249619,1
19007.0,1.6493249962108036,1
19017.0,1.6879974380332206,1
19027.0,1.7181201126499863,1
19037.0,1.7424295222696597,1
19047.0,1.7635595583851051,1
19057.0,1.7822151661493955,1
19067.0,1.7970082143423325,1
19077.0,1.805611494935638,1
19087.0,1.8061941105752197,1
19097.0,1.7983550999455309,1
19107.0,1.783336325363876,1
19117.0,1.7636542571760765,1
19127.0,1.7424062676521297,1
19137.0,1.722489675091101,1
19147.0,1.7059376526086787,1
19157.0,1.693609262876747,1
19167.0,1.7078690313755318,1
19177.0,1.7469455780369034,1
19187.0,1.7874191700505309,1
19197.0,1.8246699889696487,1
19207.0,1.8547096242527736,1
19217.0,1.8742774559979374,1
19227.0,1.8807201049981752,1
19237.0,1.8719667978982206,1
19247.0,1.846790091004457,1
19257.0,1.8053118720235113,1
19267.0,1.749504544585039,1
19277.0,1.6833407404541028,1
19287.0,1.6123123367622303,1
19297.0,1.542316462636156,1
19307.0,1.478326443380566,1
19317.0,1.4347685215139496,1
19327.0,1.4212833791741941,1
19337.0,1.4160216180947982,1
19347.0,1.413354559995473,1
19357.0,1.4094912267974535,1
19367.0,1.4030767546203298,1
19377.0,1.394758494755441,1
19387.0,1.386143957603062,1
19397.0,1.3785222748278732,1
19407.0,1.371762254993441,1
19417.0,1.3638721200140256,1
19427.0,1.3515213419262626,1
19437.0,1.3311959957384305,0
19447.0,1.3002364112156162,0
19457.0,1.2573250538621612,0
19467.0,1.2025540366439496,0
19477.0,1.1374296183756223,0
19487.0,1.0650027956861436,0
19497.0,0.9899642811577483,0
19507.0,0.9245748942420668,0
19517.0,0.8744830452700829,0
19527.0,0.8335398918757864,0
19537.0,0.802822350454987,0
19547.0,0.7814611502022661,0
19557.0,0.7671495973761965,0
19567.0,0.7566800224347217,0
19577.0,0.7462390132929821,0
19587.0,0.7317946705791881,0
19597.0,0.7135976983325409,0
19607.0,0.6986350843409591,0
19617.0,0.6716790907360793,0
19627.0,0.6315456383428697,0
19637.0,0.5868387002708655,0
19647.0,0.5512799746741298,0
19657.0,0.513188476772688,0
19667.0,0.47633549090127564,0
19677.0,0.44787609181863564,0
19687.0,0.4413397278398876,0
19697.0,0.43704652919820913,0
19707.0,0.43368219229255567,0
19717.0,0.4300749582233425,0
19727.0,0.4257214439327648,0
19737.0,0.4210026448149884,0
19747.0,0.4207979436873435,0
19757.0,0.4198928340971585,0
19767.0,0.4185111575932948,0
19777.0,0.4166689518011961,0
19787.0,0.4141727656402302,0
19797.0,0.41082866495851855,0
19807.0,0.4080826404760056,0
19817.0,0.40653084668601436,0
19827.0,0.40461719865975887,0
19837.0,0.4023282934709018,0
19847.0,0.3997950692411693,0
19857.0,0.39692532354038257,0
19867.0,0.3996374365231061,0
19877.0,0.4017055244458675,0
19887.0,0.40075781492416274,0
19897.0,0.3955192979587959,0
19907.0,0.3857009748809216,0
19917.0,0.3722086550906969,0
19927.0,0.3569408098678327,0
19937.0,0.34398130135767757,0
19947.0,0.33607831297174073,0
19957.0,0.3294654459912083,0
19967.0,0.32417062701919813,0
19977.0,0.32155842695255654,0
19987.0,0.3176274065781103,0
19997.0,0.31334570593829764,0
20007.0,0.30958372956706326,0
20017.0,0.3101032552495486,0
20027.0,0.31179349377375654,0
20037.0,0.31517212245898557,0
20047.0,0.32200327634658243,0
20057.0,0.32884139779226806,0
20067.0,0.33374690613075036,0
20077.0,0.3352460297743458,0
20087.0,0.3329882002952018,0
20097.0,0.3335835183022394,0
20107.0,0.3337034270751385,0
20117.0,0.3349473459831466,0
20127.0,0.3384016413127586,0
20137.0,0.34421311581574543,0
20147.0,0.35157941680936344,0
20157.0,0.3590877663192785,0
20167.0,0.3655959757016551,0
20177.0,0.37331046646852206,0
20187.0,0.37846821368244304,0
20197.0,0.3807884902847667,0
20207.0,0.3804640652725202,0
20217.0,0.3780543517199758,0
20227.0,0.3743570907317263,0
20237.0,0.37026575864398215,0
20247.0,0.3665994249196382,0
20257.0,0.36389143416449676,0
20267.0,0.3621619422716105,0
20277.0,0.36078123235143283,0
20287.0,0.35856407015774344,0
20297.0,0.35410894326074027,0
20307.0,0.3462242366217092,0
20317.0,0.3342712280194089,0
20327.0,0.3183596132396437,0
20337.0,0.29939838142153985,0
20347.0,0.279005322400678,0
20357.0,0.25927476167555813,0
20367.0,0.24241852007076437,0
20377.0,0.23198268411882267,0
20387.0,0.22723119938141248,0
20397.0,0.22750671522878502,0
20407.0,0.22940177867010916,0
20417.0,0.22951080264100976,0
20427.0,0.22679590289218826,0
20437.0,0.2212590447070143,0
20447.0,0.21361310339974426,0
20457.0,0.20484111484297776,0
20467.0,0.19579649066806742,0
20477.0,0.18696881980484098,0
20487.0,0.17846401049747096,0
20497.0,0.17937785917074212,0
20507.0,0.17765861094850055,0
20517.0,0.1730903149505459,0
20527.0,0.16641254403493302,0
20537.0,0.1615489167453522,0
20547.0,0.15857472272974782,0
20557.0,0.1565487724705718,0
20567.0,0.15610720571115322,0
20577.0,0.15735041499621727,0
20587.0,0.16017813045017443,0
20597.0,0.16377110801755723,0
20607.0,0.166098178083718,0
20617.0,0.17019723768086842,0
20627.0,0.17489417495037493,0
20637.0,0.17989232549159598,0
20647.0,0.18472140147012653,0
20657.0,0.19463212761137305,0
20667.0,0.20737817249758933,0
20677.0,0.2208360695588938,0
20687.0,0.2336241695795748,0
20697.0,0.244487270329132,0
20707.0,0.2524978204715519,0
20717.0,0.2572241185865712,0
20727.0,0.2588119741185636,0
20737.0,0.2579252319059498,0
20747.0,0.25552579906383244,0
20757.0,0.2525400475418373,0
20767.0,0.24955620105962645,0
20777.0,0.24673646932505083,0
20787.0,0.24399595454680215,0
20797.0,0.24129647870339976,0
20807.0,0.23884298716565383,0
20817.0,0.23706660273437313,0
20827.0,0.23640492495800963,0
20837.0,0.23698439385261716,0
20847.0,0.23838464566567802,0
20857.0,0.23968116300720343,0
20867.0,0.23978454778164776,0
20877.0,0.23784079152881266,0
20887.0,0.23518868488327388,0
20897.0,0.2329288158349827,0
20907.0,0.22932870998717192,0
20917.0,0.22455094850742963,0
20927.0,0.21894866509608424,0
20937.0,0.21294670479778904,0
20947.0,0.20678238959133027,0
20957.0,0.20026424553716493,0
20967.0,0.19280512653376164,0
20977.0,0.18375761239498795,0
20987.0,0.1728408399451744,0
20997.0,0.16049750345894248,0
21007.0,0.1524631473733452,0
21017.0,0.14673636803844015,0
21027.0,0.14008064765253359,0
21037.0,0.1419144689067891,0
21047.0,0.1472314263610751,0
21057.0,0.15241802392926365,0
21067.0,0.15628416912795795,0
21077.0,0.15817636798247586,0
21087.0,0.15998360445734325,0
21097.0,0.16406653603243704,0
21107.0,0.16712334226720169,0
21117.0,0.1696192392426467,0
21127.0,0.17223793145487473,0
21137.0,0.17554726156244246,0
21147.0,0.1797592636823476,0
21157.0,0.18645076836418145,0
21167.0,0.19555763009529537,0
21177.0,0.20413877488127452,0
21187.0,0.21211986562277876,0
21197.0,0.21963972020543082,0
21207.0,0.226831432780068,0
21217.0,0.23361456533847,0
21227.0,0.2396191741071358,0
21237.0,0.24428598626981246,0
21247.0,0.24708612447332368,0
21257.0,0.24775699933442175,0
21267.0,0.25252186161284135,0
21277.0,0.258998554778041,0
21287.0,0.2653482432687956,0
21297.0,0.27122181734668593,0
21307.0,0.276574126822531,0
21317.0,0.28161467629734194,0
21327.0,0.28667479176824884,0
21337.0,0.292032738434088,0
21347.0,0.2977633710727333,0
21357.0,0.3036985733417167,0
21367.0,0.30952127834289,0
21377.0,0.31491175174771413,0
21387.0,0.3196456607778845,0
21397.0,0.3236114311769405,0
21407.0,0.3267716667909999,0
21417.0,0.3290998826065697,0
21427.0,0.3306981239039771,0
21437.0,0.33175770195073195,0
21447.0,0.3315750677955701,0
21457.0,0.32987960035592334,0
21467.0,0.3265573727281983,0
21477.0,0.32185440926022113,0
21487.0,0.316515736631268,0
21497.0,0.31175036940596945,0
21507.0,0.3106526066791608,0
21517.0,0.31223498930207216,0
21527.0,0.31690889404,0
21537.0,0.32471050800928614,0
21547.0,0.3355610411545314,0
21557.0,0.3492920411806929,0
21567.0,0.3652008489080165,0
21577.0,0.3819386608273569,0
21587.0,0.3982847537733678,0
21597.0,0.4141966753569346,0
21607.0,0.4313875670926893,0
21617.0,0.4529980369868612,0
21627.0,0.4821067910310456,0
21637.0,0.5196159068832471,0
21647.0,0.5631761526588703,0
21657.0,0.6081660248823684,0
21667.0,0.64966697853787,0
21677.0,0.6839680520409676,0
21687.0,0.7092007262840748,0
21697.0,0.7253295002680265,0
21707.0,0.7337436902530459,0
21717.0,0.7366256147434403,0
21727.0,0.7362772188110014,0
21737.0,0.734608179949308,0
21747.0,0.7329299484797961,0
21757.0,0.7320469407972113,0
21767.0,0.7324796385624583,0
21777.0,0.7346063699698305,0
21787.0,0.7386012727310555,0
21797.0,0.7442151819738829,0
21807.0,0.7505869649248067,0
21817.0,0.7562868720630965,0
21827.0,0.7596700384776749,0
21837.0,0.7594491997361442,0
21847.0,0.755272449072519,0
21857.0,0.7480344026962769,0
21867.0,0.7396670136581137,0
21877.0,0.732318806886532,0
21887.0,0.7271787877444421,0
21897.0,0.7235524766068996,0
21907.0,0.7188001181457332,0
21917.0,0.7107265742012423,0
21927.0,0.7160634251924298,0
21937.0,0.7101596605881787,0
21947.0,0.6915049983974131,0
21957.0,0.6613930182089347,0
21967.0,0.6275730684130184,0
21977.0,0.5993094534152212,0
21987.0,0.5791366798956706,0
21997.0,0.5675212826992406,0
22007.0,0.5646430198483487,0
22017.0,0.5772327658860565,0
22027.0,0.6213721679802766,0
22037.0,0.6732392045934987,0
22047.0,0.7428985496920129,0
22057.0,0.8154559272221296,0
22067.0,0.8827166424047876,0
22077.0,0.9401381371103162,0
22087.0,0.9849862249079844,0
22097.0,1.0165553940856658,0
22107.0,1.0363695815693292,0
22117.0,1.048156144890171,0
22127.0,1.0573172521964416,0
22137.0,1.069705961892873,0
22147.0,1.0898938602780637,0
22157.0,1.1289321301378648,0
22167.0,1.2006176477150285,0
22177.0,1.2777160884543661,0
22187.0,1.3511142841941053,0
22197.0,1.4126650142586712,0
22207.0,1.4570408814991134,0
22217.0,1.4830585474722824,0
22227.0,1.4942933246640788,0
22237.0,1.498568574598221,0
22247.0,1.5057437246038419,0
22257.0,1.5238461153610747,0
22267.0,1.5553109428678682,0
22277.0,1.5959082793921358,0
22287.0,1.6369111934941905,0
22297.0,1.668739834103515,0
22307.0,1.6843467614904213,0
22317.0,1.6827754878281875,0
22327.0,1.6751101272054167,0
22337.0,1.674576485965284,0
22347.0,1.6955225266660592,0
22357.0,1.7468505611820269,0
22367.0,1.8287975828916743,0
22377.0,1.933708521629371,0
22387.0,2.0494566559752525,0
22397.0,2.1649715807757643,0
22407.0,2.2795521894833053,1
22417.0,2.3667430192761074,1
22427.0,2.423727055006465,1
22437.0,2.4513765349842562,1
22447.0,2.4532884492786957,1
22457.0,2.435063637238382,1
22467.0,2.403917396443505,1
22477.0,2.3684433244890113,1
22487.0,2.3381500635415486,1
22497.0,2.32232394922535,1
22507.0,2.3279937764935377,1
22517.0,2.357493790417287,1
22527.0,2.407022461075387,1
22537.0,2.4675287174608282,1
22547.0,2.527786207334051,1
22557.0,2.5781186220463805,1
22567.0,2.616279276058192,1
22577.0,2.6648276310053403,1
22587.0,2.694103972115365,1
22597.0,2.7100887465551486,1
22607.0,2.719735666126096,1
22617.0,2.727546019516761,1
22627.0,2.7333821744373514,1
22637.0,2.7325171105328074,1
22647.0,2.7177627003527913,1
22657.0,2.6825750995283935,1
22667.0,2.6238728021514985,1
22677.0,2.5437096101196306,1
22687.0,2.4494266638978113,1
22697.0,2.3522328212278194,1
22707.0,2.2644307089592117,1
22717.0,2.1959476137362786,1
22727.0,2.15145276021962,1
22737.0,2.129515055296696,1
22747.0,2.1241956649273996,1
22757.0,2.1278344918013983,1
22767.0,2.1333130399480034,1
22777.0,2.1349887310249454,1
22787.0,2.128533148879669,1
22797.0,2.1103270495014916,1
22807.0,2.07699740379746,1
22817.0,2.02542511930366,1
22827.0,1.9532738466803763,1
22837.0,1.859863066593717,1
22847.0,1.7470712313145507,1
22857.0,1.6281774122887347,1
22867.0,1.536925071759009,1
22877.0,1.449002419356698,1
22887.0,1.3722937155499573,1
22897.0,1.319117743039725,0
22907.0,1.2923305900598967,0
22917.0,1.2898440277496594,0
22927.0,1.3041692813504366,0
22937.0,1.3299767602976933,0
22947.0,1.3859732918633505,0
22957.0,1.4389337101932558,0
22967.0,1.4781496748424499,0
22977.0,1.5011862597003927,0
22987.0,1.508166579523464,0
22997.0,1.5018630986699923,0
23007.0,1.4876460079314922,0
23017.0,1.4729927539572492,0
23027.0,1.466734903270081,0
23037.0,1.4919921259851996,0
23047.0,1.5356219398910682,0
23057.0,1.5968040087525623,0
23067.0,1.6751331362808273,0
23077.0,1.775086566841396,0
23087.0,1.8700672540334575,0
23097.0,1.9537391548240688,0
23107.0,2.0215109048955675,0
23117.0,2.0706966214708236,0
23127.0,2.1007481175425884,0
23137.0,2.1136423567897173,0
23147.0,2.1142634600973325,0
23157.0,2.1103620799341014,0
23167.0,2.1115288649439257,0
23177.0,2.126844106422409,0
23187.0,2.161692613518585,0
23197.0,2.2152964517599916,0
23207.0,2.2806449100714463,1
23217.0,2.3470776464715533,1
23227.0,2.4040970247744773,1
23237.0,2.4446246187584624,1
23247.0,2.4666746832615685,1
23257.0,2.473231365770757,1
23267.0,2.470580720645994,1
23277.0,2.465670485799871,1
23287.0,2.4634072820585136,1
23297.0,2.4649290427678365,1
23307.0,2.4674842982084075,1
23317.0,2.4657569827093053,1
23327.0,2.4538629914965386,1
23337.0,2.427159145872415,1
23347.0,2.3833292779527078,1
23357.0,2.3226383246511966,1
23367.0,2.247558600221371,1
23377.0,2.1621155189398937,1
23387.0,2.071292246831434,1
23397.0,2.0061584945191724,1
23407.0,1.9515201090765668,1
23417.0,1.9033791893829792,1
23427.0,1.8658438405037203,1
23437.0,1.8420120368623094,1
23447.0,1.8323082367388195,1
23457.0,1.8333624167032863,1
23467.0,1.8382567085760713,1
23477.0,1.8379964805244189,1
23487.0,1.8234848186301065,1
23497.0,1.7874691545689843,1
23507.0,1.7261307352755095,1
23517.0,1.6400328435045948,1
23527.0,1.534330989302378,1
23537.0,1.4183449349561028,1
23547.0,1.3044797700277442,0
23557.0,1.2575558179313062,0
23567.0,1.2207488231190022,0
23577.0,1.1950299163403875,0
23587.0,1.1791786073975095,0
23597.0,1.1711894799648772,0
23607.0,1.1688152888257184,0
23617.0,1.1691487324504348,0
23627.0,1.168771534980022,0
23637.0,1.1645798995492882,0
23647.0,1.1607667507039001,0
23657.0,1.1512905668873246,0
23667.0,1.1335465651468413,0
23677.0,1.112131052292868,0
23687.0,1.0925626346228805,0
23697.0,1.0797091227110258,0
23707.0,1.0818773227464504,0
23717.0,1.0960531562771654,0
23727.0,1.1177231513565296,0
23737.0,1.1423904670440699,0
23747.0,1.1649212713165127,0
23757.0,1.1803486374498875,0
23767.0,1.1844664298638719,0
23777.0,1.1743613526693335,0
23787.0,1.1489113982408161,0
23797.0,1.1152324732479764,0
23807.0,1.0775219345239557,0
23817.0,1.0344801477811423,0
23827.0,0.9926721191661155,0
23837.0,0.9589179534703329,0
23847.0,0.9380960493046976,0
23857.0,0.931093873522298,0
23867.0,0.934172857618432,0
23877.0,0.9404121547137155,0
23887.0,0.9424722405973851,0
23897.0,0.9351823538150732,0
23907.0,0.9204579925634869,0
23917.0,0.9039013380203431,0
23927.0,0.8851531469422312,0
23937.0,0.8687938788347045,0
23947.0,0.8580712446990779,0
23957.0,0.8535644294290203,0
23967.0,0.8529875466951212,0
23977.0,0.8520966925862564,0
23987.0,0.846122944882115,0
23997.0,0.8311194944913038,0
24007.0,0.8048990748019311,0
24017.0,0.7675148833141318,0
24027.0,0.7213482884748523,0
24037.0,0.670829142762114,0
24047.0,0.6217236488247926,0
24057.0,0.5798915434695936,0
24067.0,0.5495618408381637,0
24077.0,0.5315801229032677,0
24087.0,0.5226871716177899,0
24097.0,0.5169069051235116,0
24107.0,0.5083219311474945,0
24117.0,0.5006270664467896,0
24127.0,0.4844750805902901,0
24137.0,0.46021209944209474,0
24147.0,0.4304456481030643,0
24157.0,0.3988962985278885,0
24167.0,0.3697581598531102,0
24177.0,0.347027038931569,0
24187.0,0.33461936334114034,0
24197.0,0.3361540066763593,0
24207.0,0.3405893047455061,0
24217.0,0.3449352346288822,0
24227.0,0.3472978917590501,0
24237.0,0.34646009597947947,0
24247.0,0.34197908440838953,0
24257.0,0.334129654207018,0
24267.0,0.32376738146607437,0
24277.0,0.31214979147806243,0
24287.0,0.30545856359304335,0
24297.0,0.3022759449085451,0
24307.0,0.3000321195822584,0
24317.0,0.2984844111063546,0
24327.0,0.29714253080710906,0
24337.0,0.29540628711817973,0
24347.0,0.29273120632176924,0
24357.0,0.288794059720451,0
24367.0,0.28362063005849514,0
24377.0,0.27764071568788085,0
24387.0,0.27163569443510005,0
24397.0,0.2665395025161006,0
24407.0,0.26309959425745544,0
24417.0,0.261546893524809,0
24427.0,0.2615027113548047,0
24437.0,0.2621607189696934,0
24447.0,0.26255236004245963,0
24457.0,0.26173887642490246,0
24467.0,0.258924331481086,0
24477.0,0.2535395929829003,0
24487.0,0.24531920655072237,0
24497.0,0.2343588587652511,0
24507.0,0.22113301223752563,0
24517.0,0.2080283465931709,0
24527.0,0.19852442818600927,0
24537.0,0.1892107031657233,0
24547.0,0.18424490904879887,0
24557.0,0.18850842805299012,0
24567.0,0.19704670243276418,0
24577.0,0.20848696632750685,0
24587.0,0.22078745488286763,0
24597.0,0.23206556787629667,0
24607.0,0.240965947713767,0
24617.0,0.24673374744004212,0
24627.0,0.24923665544255946,0
24637.0,0.24907165508221313,0
24647.0,0.24769625035423326,0
24657.0,0.24731536777440571,0
24667.0,0.25023675607302087,0
24677.0,0.2578297847658418,0
24687.0,0.26985296307292195,0
24697.0,0.28470213281799095,0
24707.0,0.3002125744318009,0
24717.0,0.3144097033473471,0
24727.0,0.32594574951624244,0
24737.0,0.3342152153926333,0
24747.0,0.33924494000338296,0
24757.0,0.3414812817594552,0
24767.0,0.34157904818774676,0
24777.0,0.34025799809096535,0
24787.0,0.3382479027920702,0
24797.0,0.33629425394494483,0
24807.0,0.3351484606000384,0
24817.0,0.3354547784080677,0
24827.0,0.3375204874402734,0
24837.0,0.34741671706142746,0
24847.0,0.3573322030775972,0
24857.0,0.3649896293680841,0
24867.0,0.36998562449610106,0
24877.0,0.37198135103749075,0
24887.0,0.3700658837838588,0
24897.0,0.3654496816208465,0
24907.0,0.3599709111704821,0
24917.0,0.3597726563827851,0
24927.0,0.3603733068062639,0
24937.0,0.3619064103693676,0
24947.0,0.36408713128312514,0
24957.0,0.3658585468136589,0
24967.0,0.3657397828456126,0
24977.0,0.36237555703880076,0
24987.0,0.3550523712108244,0
24997.0,0.34398512552988103,0
25007.0,0.33411552753169527,0
25017.0,0.3245610774578475,0
25027.0,0.31649399597910355,0
25037.0,0.3106523633394136,0
25047.0,0.3070026707763238,0
25057.0,0.30491932730816684,0
25067.0,0.30357897615422424,0
25077.0,0.3023163444888083,0
25087.0,0.300801985665388,0
25097.0,0.29907935904395067,0
25107.0,0.2982675196868011,0
25117.0,0.30372846416625887,0
25127.0,0.3125065621763115,0
25137.0,0.32509686898652823,0
25147.0,0.34113811523881343,0
25157.0,0.3594028017968676,0
25167.0,0.3781557415617142,0
25177.0,0.3956422792398652,0
25187.0,0.4105474757050079,0
25197.0,0.42504678669977086,0
25207.0,0.4438710894058069,0
25217.0,0.4622236852804893,0
25227.0,0.4787144741674888,0
25237.0,0.498056000107186,0
25247.0,0.5156160975431742,0
25257.0,0.5344013407133175,0
25267.0,0.5589304990808852,0
25277.0,0.5949153884082616,0
25287.0,0.6471563841018688,0
25297.0,0.7166999707520592,0
25307.0,0.8002695531666681,0
25317.0,0.8921555477150807,0
25327.0,0.9861561447590892,0
25337.0,1.0765743515964457,0
25347.0,1.1586624951051316,0
25357.0,1.2289250669732725,0
25367.0,1.3082018288645731,0
25377.0,1.3715587863163468,0
25387.0,1.4171253643814006,0
25397.0,1.447187767169348,0
25407.0,1.465118026722862,0
25417.0,1.474464750272551,0
25427.0,1.4781837542841945,0
25437.0,1.4782465745080946,0
25447.0,1.475668322231065,0
25457.0,1.47082637238963,0
25467.0,1.463888269024384,0
25477.0,1.4551738150877633,0
25487.0,1.445317129657163,0
25497.0,1.435208539462433,0
25507.0,1.4258344451788225,0
25517.0,1.4181657432275945,0
25527.0,1.4131261372349093,0
25537.0,1.4253167839011045,0
25547.0,1.4408395026777647,0
25557.0,1.4537948820471547,0
25567.0,1.4630798092234671,0
25577.0,1.4670440331434376,0
25587.0,1.463498960079624,0
25597.0,1.450064915786477,0
25607.0,1.4248242527000594,0
25617.0,1.387172311822428,0
25627.0,1.3386356772003307,0
25637.0,1.283279262759614,0
25647.0,1.227289446009744,0
25657.0,1.177517493479985,0
25667.0,1.139259762141695,0
25677.0,1.1142758915246693,0
25687.0,1.100418636209643,0
25697.0,1.093304222532014,0
25707.0,1.0887320527041706,0
25717.0,1.084272663605609,0
25727.0,1.0812380302884752,0
25737.0,1.0814758936699844,0
25747.0,1.0817182059665484,0
25757.0,1.0851547660325842,0
25767.0,1.1011934786194413,0
25777.0,1.1567421067772898,0
25787.0,1.2232173001961648,0
25797.0,1.2971961558480873,0
25807.0,1.374845994660359,0
25817.0,1.452458382400402,0
25827.0,1.526831486890448,0
25837.0,1.5953906131615199,0
25847.0,1.6560940572288165,0
25857.0,1.7210929236514896,0
25867.0,1.783442098190385,0
25877.0,1.8283565548506266,0
25887.0,1.8558288054179612,0
25897.0,1.8689906859040861,0
25907.0,1.8735389205982695,0
25917.0,1.8759520853692422,0
25927.0,1.8811366774958216,0
25937.0,1.8980484909682354,0
25947.0,1.9435943740222135,0
25957.0,1.981641312779685,0
25967.0,2.007657507115639,0
25977.0,2.0206931627329405,0
25987.0,2.0231200019685027,0
25997.0,2.019331548052747,0
26007.0,2.0139527509602217,0
26017.0,2.0102374717418634,0
26027.0,2.0092039492827394,0
26037.0,2.009689427512973,0
26047.0,2.009075167892315,0
26057.0,2.0042009299660153,0
26067.0,1.9920723180420983,0
26077.0,1.9702321609147322,0
26087.0,1.936889611163464,0
26097.0,1.8909686540083186,0
26107.0,1.8322937408672386,0
26117.0,1.7861966064400148,0
26127.0,1.727734193703343,0
26137.0,1.6579522745672497,0
26147.0,1.5798095818888953,0
26157.0,1.4984812071136524,0
26167.0,1.4209330393350537,0
26177.0,1.37056758264766,0
26187.0,1.350764548779598,0
26197.0,1.3368314949635427,0
26207.0,1.3203634883018214,0
26217.0,1.2916833136475616,0
26227.0,1.2432575661603567,0
26237.0,1.1721504746225024,0
26247.0,1.0809173779135506,0
26257.0,0.9771170918309199,0
26267.0,0.8838557122901123,0
26277.0,0.7963063737503999,0
26287.0,0.7230673731938893,0
26297.0,0.6800873621993703,0
26307.0,0.6608475285942024,0
26317.0,0.6436491435013929,0
26327.0,0.633718146411586,0
26337.0,0.61846489992712,0
26347.0,0.5925717461085174,0
26357.0,0.5551464852079377,0
26367.0,0.5076074749592018,0
26377.0,0.4682792353131211,0
26387.0,0.4309187342877189,0
26397.0,0.39176835816639677,0
26407.0,0.3535516110644015,0
26417.0,0.3185259921990417,0
26427.0,0.2881571948756914,0
26437.0,0.2630348458569892,0
26447.0,0.24299462399400407,0
26457.0,0.22732028922104858,0
26467.0,0.2149742838781999,0
26477.0,0.20484726855648455,0
26487.0,0.1959579485868439,0
26497.0,0.1875437681431573,0
26507.0,0.17906244234336646,0
26517.0,0.1701598040911444,0
26527.0,0.1606393836620769,0
26537.0,0.15044054875137364,0
26547.0,0.13961835893813174,0
26557.0,0.12831806745341096,0
26567.0,0.11674261783929946,0
26577.0,0.10511664424153047,0
26587.0,0.09365284434379824,0
26597.0,0.0825260712926793,0
26607.0,0.07185818815770391,0
26617.0,0.06171397580473721,0
26627.0,0.05210618469385513,0
26637.0,0.043006624501191915,0
26647.0,0.034359970965259314,0
26657.0,0.026097473820044237,0
26667.0,0.018148644109811124,0
26677.0,0.010449962494824912,0
26687.0,0.0029504305587229884,0
26697.0,-0.004172151446660499,0
26707.0,-0.010133900937069163,0
26717.0,-0.016025897328635984,0
26727.0,-0.021584467245323043,0
26737.0,-0.02677384188640297,0
26747.0,-0.03181690221855086,0
26757.0,-0.03669795020395608,0
26767.0,-0.04140316027132417,0
26777.0,-0.045921575302127295,0
26787.0,-0.050245432670769974,0
26797.0,-0.054369899068605926,0
26807.0,-0.05747709005632193,0
26817.0,-0.0601681794844008,0
26827.0,-0.06265028546416765,0
26837.0,-0.06493166425025196,0
26847.0,-0.06701860306760958,0
26857.0,-0.0689140525517119,0
26867.0,-0.07061704358786884,0
26877.0,-0.07212292311501897,0
26887.0,-0.07342441231063004,0
26897.0,-0.07451347205332906,0
26907.0,-0.07538384409384623,0
26917.0,-0.07603386928053774,0
26927.0,-0.07646886571498258,0
26937.0,-0.07670224465988873,0
26947.0,-0.07675488295419239,0
26957.0,-0.0766529569735262,0
26967.0,-0.0764250337416279,0
26977.0,-0.07609933385051534,0
26987.0,-0.07570175840034771,0
26997.0,-0.07525482473065785,0
27007.0,-0.07477734858765825,0
27017.0,-0.07428460546561272,0
27027.0,-0.07378873201200659,0
27037.0,-0.07329920370594326,0
27047.0,-0.07282329647623843,0
27057.0,-0.07236649033045794,0
27067.0,-0.07193280288161236,0
27077.0,-0.07152505585827099,0
27087.0,-0.0711450841981567,0
27097.0,-0.07079389943511347,0
27107.0,-0.07047181953589547,0
27117.0,-0.07017857777812185,0
27127.0,-0.06991342438879038,0
27137.0,-0.0696752361111612,0
27147.0,-0.06946264875233162,0
27157.0,-0.0692742223860787,0
27167.0,-0.06910863433545575,0
27177.0,-0.06896487211603161,0
27187.0,-0.06884237810014479,0
27197.0,-0.0687410980638043,0
27207.0,-0.06866141613282413,0
27217.0,-0.06860400335966645,0
27227.0,-0.06856963598703977,0
27237.0,-0.06855903643709285,0
27247.0,-0.06857276542873905,0
27257.0,-0.06861116785717325,0
27267.0,-0.06867436025252377,0
27277.0,-0.06876224406918093,0
27287.0,-0.0688745317412943,0
27297.0,-0.06901077685253816,0
27307.0,-0.0691704036083089,0
27317.0,-0.06935273341061672,0
27327.0,-0.06955700784921695,0
27337.0,-0.06978240819112873,0
27347.0,-0.07002807176654634,0
27357.0,-0.07029310571282095,0
27367.0,-0.07057659849250601,0
27377.0,-0.07087762951066984,0
27387.0,-0.07119527704928306,0
27397.0,-0.07152862465035464,0
27407.0,-0.07187676602312845,0
27417.0,-0.0722388085197117,0
27427.0,-0.07261387523918211,0
27437.0,-0.07300110588017375,0
27447.0,-0.0733996565418209,0
27457.0,-0.0738086987665224,0
27467.0,-0.07422741818738914,0
27477.0,-0.07465501313261994,0
27487.0,-0.07509069346289195,0
27497.0,-0.07553367981689016,0
27507.0,-0.07598320332356533,0
27517.0,-0.07643850573220748,0
27527.0,-0.0768988398374044,0
27537.0,-0.07736347002380206,0
27547.0,-0.07783167272780492,0
27557.0,-0.0783027366212193,0
27567.0,-0.0787759623457332,0
27577.0,-0.07925066166018434,0
27587.0,-0.07972615591469093,0
27597.0,-0.08020177381997531,0
27607.0,-0.08067684852857465,0
27617.0,-0.0811507141019986,0
27627.0,-0.08162270149605129,0
27637.0,-0.08209213425216694,0
27647.0,-0.08255832416369316,0
27657.0,-0.08302056730572979,0
27667.0,-0.083478140992271,0
27677.0,-0.08393030251020359,0
27687.0,-0.08437629091061023,0
27697.0,-0.08481533370185095,0
27707.0,-0.08524666091041264,0
27717.0,-0.08566952936435403,0
27727.0,-0.08608325959513427,0
27737.0,-0.08648728561482473,0
27747.0,-0.08688121338206897,0
27757.0,-0.0872648775902893,0
27767.0,-0.08763838127995294,0
27777.0,-0.08800210298430057,0
27787.0,-0.08835666415394758,0
27797.0,-0.08870286270499582,0
27807.0,-0.08904158946872594,0
27817.0,-0.08937374705894803,0
27827.0,-0.08970018520184227,0
27837.0,-0.09002165774508214,0
27847.0,-0.09033879931010663,0
27857.0,-0.09065211591795726,0
27867.0,-0.09096198338431474,0
27877.0,-0.09126864837492765,0
27887.0,-0.09157222851602628,0
27897.0,-0.09187270924186389,0
27907.0,-0.09216993595072796,0
27917.0,-0.09246360058580909,0
27927.0,-0.0927532221337126,0
27937.0,-0.09303812097095694,0
27947.0,-0.09331738777318944,0
27957.0,-0.09358984918150745,0
27967.0,-0.09385403490606173,0
27977.0,-0.09410815442079269,0
27987.0,-0.09435009491134044,0
27997.0,-0.09457745309269128,0
28007.0,-0.09478760797816696,0
28017.0,-0.09497782723986463,0
28027.0,-0.09514538077615753,0
28037.0,-0.09528762450169623,0
28047.0,-0.09540202813066548,0
28057.0,-0.09548615128843206,0
28067.0,-0.09553760469787362,0
28077.0,-0.09555404804199392,0
28087.0,-0.09553326550929819,0
28097.0,-0.09547332669265012,0
28107.0,-0.09537279453782595,0
28117.0,-0.09523090441059537,0
28127.0,-0.09504763675664989,0
28137.0,-0.09482364999217034,0
28147.0,-0.09456010281002175,0
28157.0,-0.09425843317517256,0
28167.0,-0.09392015745599765,0
28177.0,-0.0935079746091185,0
28187.0,-0.0929068124408299,0
28197.0,-0.09226510079945198,0
28207.0,-0.09158417723392069,0
28217.0,-0.09086508450470206,0
28227.0,-0.09010861163981788,0
28237.0,-0.08931533269782957,0
28247.0,-0.08848564038013353,0
28257.0,-0.08761977368250318,0
28267.0,-0.08671784014398029,0
28277.0,-0.08577983428331007,0
28287.0,-0.08480565481369702,0
28297.0,-0.08352788707697568,0
28307.0,-0.08211058067304979,0
28317.0,-0.08064421670010656,0
28327.0,-0.07912844275588907,0
28337.0,-0.07756300213443573,0
28347.0,-0.07594777658999731,0
28357.0,-0.07428280760928108,0
28367.0,-0.07256828774635993,0
28377.0,-0.07080452626126989,0
28387.0,-0.06899190368072458,0
28397.0,-0.067130831035409,0
28407.0,-0.06522172284558442,0
28417.0,-0.06326498491523919,0
28427.0,-0.06126101314799892,0
28437.0,-0.059210198437894844,0
28447.0,-0.05711293376121958,0
28457.0,-0.05496962124794631,0
28467.0,-0.05278067832821957,0
28477.0,-0.050546542899771466,0
28487.0,-0.048177089772910395,0
28497.0,-0.04565847367433881,0
28507.0,-0.04309296382463579,0
28517.0,-0.04048115390345997,0
28527.0,-0.03782368543489685,0
28537.0,-0.03512125333467082,0
28547.0,-0.03237461145258176,0
28557.0,-0.029584577818651855,0
28567.0,-0.026752039305243,0
28577.0,-0.02369116038149366,0
28587.0,-0.020145384031882443,0
28597.0,-0.01655071954604683,0
28607.0,-0.012908640203807189,0
28617.0,-0.009220718234284058,0
28627.0,-0.005488625162275922,0
28637.0,-0.0017141325659556228,0
28647.0,0.0021008862102947536,0
28657.0,0.005954452933332327,0
28667.0,0.009844479592753717,0
28677.0,0.013768761626039037,0
28687.0,0.01772496947296505,0
28697.0,0.021710638957073605,0
28707.0,0.02572316129220528,0
28717.0,0.029759773715991082,0
28727.0,0.03381755159184702,0
28737.0,0.037893402455981974,0
28747.0,0.04198406214325112,0
28757.0,0.04608609276498588,0
28767.0,0.05019588204092033,0
28777.0,0.0543096434143877,0
28787.0,0.05842341636834816,0
28797.0,0.06253306641600163,0
28807.0,0.06697853399297209,0
28817.0,0.07171672757661886,0
28827.0,0.07643492811677073,0
28837.0,0.0811275050909458,0
28847.0,0.08578861434195137,0
28857.0,0.09041219434744525,0
28867.0,0.09499196295157752,0
28877.0,0.09952141494472264,0
28887.0,0.10399382070682792,0
28897.0,0.10840222597942226,0
28907.0,0.1127394526528748,0
28917.0,0.11699810020430189,0
28927.0,0.1211705472600704,0
28937.0,0.12524895267353145,0
28947.0,0.12922525543888488,0
28957.0,0.1330911728595404,0
28967.0,0.1368381966444674,0
28977.0,0.14045758690126398,0
28987.0,0.1439403644391114,0
28997.0,0.14727730234935416,0
29007.0,0.15045891830781832,0
29017.0,0.15347546949412139,0
29027.0,0.15631695233471962,0
29037.0,0.15897310910579596,0
29047.0,0.16143344283447575,0
29057.0,0.16368724110115984,0
29067.0,0.16572360823057194,0
29077.0,0.16753150411640755,0
29087.0,0.16909978680232646,0
29097.0,0.1704172549873632,0
29107.0,0.171472686042171,0
29117.0,0.17225486521906885,0
29127.0,0.17275260257840447,0
29137.0,0.17295473583101878,0
29147.0,0.17285011992722904,0
29157.0,0.1724276075930208,0
29167.0,0.17167602880112387,0
29177.0,0.1705841810247149,0
29187.0,0.16914084539135663,0
29197.0,0.16733484578093488,0
29207.0,0.16515516789710022,0
29217.0,0.16259115276789923,0
29227.0,0.15963277364299208,0
29237.0,0.15627099717310922,0
29247.0,0.15249821995878174,0
29257.0,0.1483087616301048,0
29267.0,0.14369938811674182,0
29277.0,0.13866983670107835,0
29287.0,0.13322332085980265,0
29297.0,0.1273670106089947,0
29307.0,0.12111251481152756,0
29317.0,0.11447643575886514,0
29327.0,0.10748112177021768,0
29337.0,0.10015580695988996,0
29347.0,0.09253839235103187,0
29357.0,0.084678179069277,0
29367.0,0.07663989516150542,0
29377.0,0.06850933133240829,0
29387.0,0.06068903495907539,0
29397.0,0.05383505871348348,0
29407.0,0.04730251292591115,0
29417.0,0.04131145133580008,0
29427.0,0.0361335272930519,0
29437.0,0.03208657926575459,0
29447.0,0.029515446900390704,0
29457.0,0.028756384105678084,0
29467.0,0.030089168443411658,0
29477.0,0.03369024862125495,0
29487.0,0.03960546955993117,0
29497.0,0.04775551198148335,0
29507.0,0.05797302678671703,0
29517.0,0.07138658837044574,0
29527.0,0.08735584460049556,0
29537.0,0.10515920988017816,0
29547.0,0.12478947254933746,0
29557.0,0.14637302819464723,0
29567.0,0.17016888306197067,0
29577.0,0.19654828380511927,0
29587.0,0.22595147599512322,0
29597.0,0.2588175114591003,0
29607.0,0.29548643201096203,0
29617.0,0.3360813716591455,0
29627.0,0.38038889072726256,0
29637.0,0.427764290425116,0
29647.0,0.4770902376665407,0
29657.0,0.5268106219798407,0
29667.0,0.5750493054421035,0
29677.0,0.619808055961815,0
29687.0,0.6592210937248992,0
29697.0,0.6918268132761405,0
29707.0,0.7168037163927654,0
29717.0,0.7341130317956739,0
29727.0,0.7445008875597368,0
29737.0,0.7493413955277783,0
29747.0,0.7538504796857431,0
29757.0,0.7579752362758392,0
29767.0,0.7616653194248314,0
29777.0,0.7648758750282455,0
29787.0,0.7675695609038455,0
29797.0,0.7697166567352327,0
29807.0,0.7712923273022554,0
29817.0,0.7722703990246997,0
29827.0,0.7726134762534596,0
29837.0,0.7722597076578643,0
29847.0,0.7711068630206288,0
29857.0,0.7689945775361049,0
29867.0,0.7656858714703584,0
29875.0,0.7608497599184285,0
