Time,Fused_z,Active_binary
47.0,0.13964065838408582,0
57.0,0.14757666589476584,0
67.0,0.15723940782325171,0
77.0,0.16941873347349584,0
87.0,0.1846353428250988,0
97.0,0.20294383774362268,0
107.0,0.22386897555981117,0
117.0,0.24651504560580653,0
127.0,0.26977859215137373,0
137.0,0.2925563192964105,0
147.0,0.31388384611202014,0
157.0,0.3330111324526066,0
167.0,0.3494560591115359,0
177.0,0.36305667404315056,0
187.0,0.3739936694557334,0
197.0,0.3827296879349481,0
207.0,0.3898395822965108,0
217.0,0.3938897956552287,0
227.0,0.39388950795973277,0
237.0,0.38914429233036185,0
247.0,0.37947110003519124,0
257.0,0.3766026434362962,0
267.0,0.37664969624847444,0
277.0,0.37351235121729043,0
287.0,0.36927603933530817,0
297.0,0.3709542454620043,0
307.0,0.3733092742833587,0
317.0,0.375570734045406,0
327.0,0.3794121083035755,0
337.0,0.3859600559663785,0
347.0,0.4012607790963006,0
357.0,0.41998757928906066,0
367.0,0.43712425927748777,0
377.0,0.45132595963244887,0
387.0,0.4615274140726658,0
397.0,0.467156151259425,0
407.0,0.46811971528153173,0
417.0,0.46464625602840726,0
427.0,0.4571294364596502,0
437.0,0.44608724327713933,0
447.0,0.4322239122683313,0
457.0,0.41649207501824403,0
467.0,0.40005367282134385,0
477.0,0.38410309423309963,0
487.0,0.3695970106800093,0
497.0,0.3570043246185497,0
507.0,0.34621048742195837,0
517.0,0.33665065879409745,0
527.0,0.32762443845228406,0
537.0,0.3186332558717202,0
547.0,0.3095551125451643,0
557.0,0.30056496144691053,0
567.0,0.2918787151275809,0
577.0,0.2834976886197247,0
587.0,0.2750470824364787,0
597.0,0.26568511579688303,0
607.0,0.25412557124290736,0
617.0,0.23891954677581878,0
627.0,0.21899149259101008,0
637.0,0.19586178415150685,0
647.0,0.17386835217551339,0
657.0,0.14885957791935484,0
667.0,0.12172564935265812,0
677.0,0.11852099493060544,0
687.0,0.13119213586445627,0
697.0,0.1453809923330538,0
707.0,0.17372529781623464,0
717.0,0.21507074907159018,0
727.0,0.2523628006073283,0
737.0,0.2845727529255267,0
747.0,0.3109682729418299,0
757.0,0.3310765852147667,0
767.0,0.3447924397673562,0
777.0,0.3525077942195288,0
787.0,0.3551789928813458,0
797.0,0.3612545346158814,0
807.0,0.3653280026248502,0
817.0,0.36791811026374754,0
827.0,0.37044648825838955,0
837.0,0.3740340544787888,0
847.0,0.3792718168839052,0
857.0,0.3862000049916354,0
867.0,0.3944775305083905,0
877.0,0.4036272953596618,0
887.0,0.41321752974487813,0
897.0,0.4229039907968225,0
907.0,0.43235702614546284,0
917.0,0.4411591032445137,0
927.0,0.4487539768197618,0
937.0,0.4544796701173519,0
947.0,0.45766474722784206,0
957.0,0.4577372346308608,0
967.0,0.4542939619706771,0
977.0,0.44710594861591146,0
987.0,0.436084069997556,0
997.0,0.4212654549169668,0
1007.0,0.40286815359438244,0
1017.0,0.38572959538425955,0
1027.0,0.3669903224838261,0
1037.0,0.34683634710745587,0
1047.0,0.32683528052605504,0
1057.0,0.30853102397391974,0
1067.0,0.2931348874088383,0
1077.0,0.28232294695107,0
1087.0,0.27669222795744663,0
1097.0,0.2734364334312859,0
1107.0,0.27060400275102964,0
1117.0,0.27022865556979514,0
1127.0,0.26886265574177376,0
1137.0,0.26545122180669656,0
1147.0,0.2608055324635852,0
1157.0,0.25643823015986267,0
1167.0,0.254119941930981,0
1177.0,0.2553297973026696,0
1187.0,0.2607609133745421,0
1197.0,0.2700756475053745,0
1207.0,0.28200365190411586,0
1217.0,0.2950782897939126,0
1227.0,0.31837035590401097,0
1237.0,0.33946315020956863,0
1247.0,0.3554028796450356,0
1257.0,0.3640221136029421,0
1267.0,0.3779336495973325,0
1277.0,0.38836094467265714,0
1287.0,0.3924248746104383,0
1297.0,0.3917252810339935,0
1307.0,0.3887165188711682,0
1317.0,0.38577185530770575,0
1327.0,0.3842926770887053,0
1337.0,0.3842947662631505,0
1347.0,0.38470870557861137,0
1357.0,0.3841902675243333,0
1367.0,0.38548944267243623,0
1377.0,0.38785702071147443,0
1387.0,0.3952806560521248,0
1397.0,0.40292714422231507,0
1407.0,0.412220901522117,0
1417.0,0.42395545841148774,0
1427.0,0.43807995384416454,0
1437.0,0.45383236653692915,0
1447.0,0.47001181962755656,0
1457.0,0.4851735726325345,0
1467.0,0.49771832700907614,0
1477.0,0.5192703564593062,0
1487.0,0.5410886315089264,0
1497.0,0.5546788356732426,0
1507.0,0.5586798435500566,0
1517.0,0.558183446869285,0
1527.0,0.560760616101087,0
1537.0,0.571109161043861,0
1547.0,0.5963571359863078,0
1557.0,0.6432143520437489,0
1567.0,0.7094525905600686,0
1577.0,0.78685401272258,0
1587.0,0.8644941623312099,0
1597.0,0.9317700345272684,0
1607.0,0.9811571242094808,0
1617.0,1.00971654135367,0
1627.0,1.0195350448742335,0
1637.0,1.0171941001209,0
1647.0,1.0121384552607104,0
1657.0,1.0183620152884743,0
1667.0,1.0488664709668325,0
1677.0,1.1043684151215551,0
1687.0,1.1717449685996324,0
1697.0,1.2401639060339722,0
1707.0,1.2997110352581234,0
1717.0,1.3437253817301218,0
1727.0,1.3695407286786803,0
1737.0,1.3780995031960803,0
1747.0,1.3730064880916575,0
1757.0,1.359493177326216,0
1767.0,1.3435729236976952,0
1777.0,1.3314204426297618,0
1787.0,1.328778010732654,0
1797.0,1.3401011910554685,0
1807.0,1.3673667810190038,0
1817.0,1.4090146218476198,0
1827.0,1.459894574424093,0
1837.0,1.5301435861950012,0
1847.0,1.6023812637192207,0
1857.0,1.660253978784115,0
1867.0,1.7056866733232223,0
1877.0,1.7477043746107626,0
1887.0,1.7715272826980581,0
1897.0,1.7815731718760044,0
1907.0,1.7836036499506895,0
1917.0,1.7829604208063259,0
1927.0,1.7829742940357582,0
1937.0,1.7840838063753481,0
1947.0,1.7840014590956188,0
1957.0,1.778844763957023,0
1967.0,1.7647710779451153,0
1977.0,1.7395442965636934,0
1987.0,1.7035974648870793,0
1997.0,1.6603647920704678,0
2007.0,1.6158031357723335,0
2017.0,1.577097680684174,0
2027.0,1.5506787150905479,0
2037.0,1.5400389925293005,0
2047.0,1.5442920569898544,0
2057.0,1.5582975693820913,0
2067.0,1.5742511287381402,0
2077.0,1.5838102164743733,0
2087.0,1.5798680709610755,0
2097.0,1.557613175943296,0
2107.0,1.5149263278321432,0
2117.0,1.452330177625281,0
2127.0,1.3727140009175476,0
2137.0,1.280992888445219,0
2147.0,1.1837602115664603,0
2157.0,1.088869335623926,0
2167.0,1.010794384971311,0
2177.0,0.9569487688541992,0
2187.0,0.9399109409018124,0
2197.0,0.9404387085283046,0
2207.0,0.9546677642916109,0
2217.0,0.9804506535098786,0
2227.0,1.0127161867256773,0
2237.0,1.0446627458468631,0
2247.0,1.069662863801081,0
2257.0,1.1070041993639148,0
2267.0,1.135000179474357,0
2277.0,1.1477560444791552,0
2287.0,1.1491322662035175,0
2297.0,1.145149680508546,0
2307.0,1.1420259726728461,0
2317.0,1.1440621704167722,0
2327.0,1.1523567231982508,0
2337.0,1.1650171139641274,0
2347.0,1.178601915972289,0
2357.0,1.1959932763693555,0
2367.0,1.2060191103037903,0
2377.0,1.2045880438029077,0
2387.0,1.2084557540447218,0
2397.0,1.2215773491072746,0
2407.0,1.2456939182806417,0
2417.0,1.279909762466944,0
2427.0,1.3287971777631202,0
2437.0,1.3839764715934895,0
2447.0,1.4363596820905582,0
2457.0,1.490973330777091,0
2467.0,1.5321121606219361,0
2477.0,1.5505020443114161,0
2487.0,1.5492018044801226,0
2497.0,1.5361498062918189,0
2507.0,1.5214729505245739,0
2517.0,1.5138985772493982,0
2527.0,1.5269453186875872,0
2537.0,1.561028661792848,0
2547.0,1.6021704790952276,0
2557.0,1.641472091150365,0
2567.0,1.6717626193279238,0
2577.0,1.6898345900069538,0
2587.0,1.6970227619137512,0
2597.0,1.6980725366689051,0
2607.0,1.6988315434259598,0
2617.0,1.7038390778149233,0
2627.0,1.74131441876249,0
2637.0,1.7855805926459434,0
2647.0,1.8283393047176264,1
2657.0,1.865793196591492,1
2667.0,1.8959099993062587,1
2677.0,1.9176632417460377,1
2687.0,1.9300694264125933,1
2697.0,1.931555768718284,1
2707.0,1.9200706403880015,1
2717.0,1.8940686388450643,1
2727.0,1.8540762877162424,1
2737.0,1.8041109485775917,1
2747.0,1.7519798696064215,1
2757.0,1.7263802841916172,1
2767.0,1.7201029609812948,1
2777.0,1.7274972774165351,1
2787.0,1.7423140625414273,1
2797.0,1.7544211019408422,1
2807.0,1.7540445261061692,1
2817.0,1.7355612786418608,1
2827.0,1.7078205042974717,1
2837.0,1.6862186532744114,1
2847.0,1.6622357683260283,1
2857.0,1.643005271849682,1
2867.0,1.632911358457254,1
2877.0,1.6315756509728359,1
2887.0,1.6342112979709598,1
2897.0,1.6436583212352227,1
2907.0,1.6447767999049518,1
2917.0,1.6340331355115851,1
2927.0,1.6526206827751655,1
2937.0,1.671850044559934,1
2947.0,1.7054974899434119,1
2957.0,1.7375404150311708,1
2967.0,1.7543487522495456,1
2977.0,1.757253571251062,1
2987.0,1.7498010185314814,1
2997.0,1.7508298132230018,1
3007.0,1.756523347118411,1
3017.0,1.7649225450390607,1
3027.0,1.7753277167738806,1
3037.0,1.7859539468561054,1
3047.0,1.794389774612761,1
3057.0,1.7984262280632266,1
3067.0,1.7969986200480295,1
3077.0,1.7907568440736752,1
3087.0,1.7818099255986177,1
3097.0,1.7725285377316329,1
3107.0,1.7638993892061976,1
3117.0,1.7544806136666944,1
3127.0,1.7409210423946122,1
3137.0,1.7200840412305172,1
3147.0,1.6917253340721095,1
3157.0,1.6832645047901922,1
3167.0,1.6831896792659298,1
3177.0,1.6968376098170372,1
3187.0,1.72871181025811,1
3197.0,1.7755749109798753,1
3207.0,1.8575337268630194,1
3217.0,1.95187707502881,1
3227.0,2.0122621686783106,1
3237.0,2.0306379454930794,1
3247.0,2.010574104486865,1
3257.0,1.9658699342830221,1
3267.0,1.9160546123432818,1
3277.0,1.879724085010948,1
3287.0,1.8680403239731256,1
3297.0,1.8816256551074937,1
3307.0,1.912444961601274,1
3317.0,1.9489060456078573,1
3327.0,1.9808931842892221,1
3337.0,2.0026856200787986,1
3347.0,2.0134761287105833,1
3357.0,2.0160678677241677,1
3367.0,2.014570240607239,1
3377.0,2.0120802454974474,1
3387.0,2.009410010062748,1
3397.0,2.005510705376105,1
3407.0,1.9992417470104846,1
3417.0,1.991138826143935,1
3427.0,1.983667340039099,1
3437.0,1.9793469330504754,1
3447.0,1.9776032780336508,1
3457.0,1.9723164167741638,1
3467.0,1.9518819914445333,1
3477.0,1.9021551618595538,1
3487.0,1.8110854193763752,1
3497.0,1.673331697722786,1
3507.0,1.493601552574919,1
3517.0,1.288046936921015,1
3527.0,1.083075785111934,1
3537.0,0.9101129687919923,0
3547.0,0.8006963515368688,0
3557.0,0.7595636247370997,0
3567.0,0.7506035131476572,0
3577.0,0.7442586911826917,0
3587.0,0.7245273350437329,0
3597.0,0.6859339002706877,0
3607.0,0.6190604917516928,0
3617.0,0.5316023321828088,0
3627.0,0.4364486306687434,0
3637.0,0.3485941422456682,0
3647.0,0.299673014369502,0
3657.0,0.27832240353670373,0
3667.0,0.282940826501877,0
3677.0,0.29520231244402634,0
3687.0,0.3145153674047921,0
3697.0,0.34101208258857874,0
3707.0,0.3588924439085884,0
3717.0,0.3685888527623743,0
3727.0,0.37237770611067217,0
3737.0,0.3732869971139147,0
3747.0,0.3742192190633261,0
3757.0,0.3772672023024408,0
3767.0,0.3832192975243949,0
3777.0,0.3913872658087689,0
3787.0,0.3999192364965464,0
3797.0,0.40653244111445697,0
3807.0,0.4093579201520695,0
3817.0,0.42018088180198887,0
3827.0,0.42774159952453705,0
3837.0,0.4294276845411692,0
3847.0,0.426309869325158,0
3857.0,0.4203364781583494,0
3867.0,0.413770374276032,0
3877.0,0.4085264932604497,0
3887.0,0.4056362308920427,0
3897.0,0.40503122739669295,0
3907.0,0.40565140921783793,0
3917.0,0.4057521668653462,0
3927.0,0.40330395371823613,0
3937.0,0.39641625428001326,0
3947.0,0.3837143250684497,0
3957.0,0.3646217820434052,0
3967.0,0.3395645006636463,0
3977.0,0.31444035425831096,0
3987.0,0.29445558541595723,0
3997.0,0.2775215262583439,0
4007.0,0.26581492046062927,0
4017.0,0.26004965054518353,0
4027.0,0.25877529222136164,0
4037.0,0.25881977079536433,0
4047.0,0.25650445076268547,0
4057.0,0.24880031051409177,0
4067.0,0.23412915361515563,0
4077.0,0.2198128666302352,0
4087.0,0.20781965634741056,0
4097.0,0.197002356346424,0
4107.0,0.1962271248972149,0
4117.0,0.19599135681818752,0
4127.0,0.19431431929434867,0
4137.0,0.18968458177412315,0
4147.0,0.181509056989949,0
4157.0,0.17010785085469746,0
4167.0,0.15639078818841076,0
4177.0,0.1414689088266088,0
4187.0,0.12648634875573042,0
4197.0,0.11307536804126514,0
4207.0,0.10970172292367786,0
4217.0,0.11697119607786331,0
4227.0,0.13898934918551964,0
4237.0,0.17891402812601065,0
4247.0,0.24344369428682944,0
4257.0,0.315559084182691,0
4267.0,0.38849089722913144,0
4277.0,0.45565704558566034,0
4287.0,0.5118095690226612,0
4297.0,0.5538836200148693,0
4307.0,0.5813769650263176,0
4317.0,0.5962001907871135,0
4327.0,0.6019838022116728,0
4337.0,0.6029527992661832,0
4347.0,0.6027085155250631,0
4357.0,0.6034337226507761,0
4367.0,0.6058983619835372,0
4377.0,0.610161813145123,0
4387.0,0.6164099782883794,0
4397.0,0.6253083108756645,0
4407.0,0.637629420757609,0
4417.0,0.6676481432207939,0
4427.0,0.7115561651908899,0
4437.0,0.7791097333665163,0
4447.0,0.8452110553721041,0
4457.0,0.9033373344077296,0
4467.0,0.951849422275119,0
4477.0,0.9905729795932301,0
4487.0,1.0202042569026797,0
4497.0,1.0416429990245635,0
4507.0,1.055481799206566,0
4517.0,1.0618338137218761,0
4527.0,1.060530707198291,0
4537.0,1.0515468928876124,0
4547.0,1.0354138356543219,0
4557.0,1.0134246694793767,0
4567.0,1.0077263430097745,0
4577.0,1.0120526573757336,0
4587.0,1.0181389576619417,0
4597.0,1.0247901278821923,0
4607.0,1.0304077285381505,0
4617.0,1.0336574378240435,0
4627.0,1.0343334524611212,0
4637.0,1.034012705509507,0
4647.0,1.0359690009520943,0
4657.0,1.0440563804293697,0
4667.0,1.0608657319292498,0
4677.0,1.0861188898692375,0
4687.0,1.1365577046098554,0
4697.0,1.1910738232202647,0
4707.0,1.234559920558079,0
4717.0,1.2604647889072513,0
4727.0,1.266551472500572,0
4737.0,1.2549865992911324,0
4747.0,1.238440365894903,0
4757.0,1.2244137895563774,0
4767.0,1.2077320169170602,0
4777.0,1.191563265872384,0
4787.0,1.1773154383363602,0
4797.0,1.1652875006078431,0
4807.0,1.1553829054799523,0
4817.0,1.1474370846390656,0
4827.0,1.1435047415293944,0
4837.0,1.1410613723824752,0
4847.0,1.135789771441592,0
4857.0,1.1259551601019329,0
4867.0,1.1142292511115042,0
4877.0,1.111011720567304,0
4887.0,1.1059709116350511,0
4897.0,1.1005113715982113,0
4907.0,1.0965685632723252,0
4917.0,1.0960774924898509,0
4927.0,1.1003451218370026,0
4937.0,1.1094696688182581,0
4947.0,1.1220238369555566,0
4957.0,1.1559557826075388,0
4967.0,1.1853582217770755,0
4977.0,1.2050270011722362,0
4987.0,1.2163690504225164,0
4997.0,1.2322671178309448,0
5007.0,1.2774029020520792,0
5017.0,1.3768871120320396,0
5027.0,1.508062200042592,0
5037.0,1.657520158692808,0
5047.0,1.8028035839719392,1
5057.0,1.9285925165661228,1
5067.0,2.0267350955644847,1
5077.0,2.094532787525922,1
5087.0,2.1346896093745276,1
5097.0,2.1539265194210655,1
5107.0,2.160651005026012,1
5117.0,2.162409113192494,1
5127.0,2.164033220887153,1
5137.0,2.1671961159753614,1
5147.0,2.171432059873549,1
5157.0,2.175895274845868,1
5167.0,2.180715091637178,1
5177.0,2.187083393514019,1
5187.0,2.1960445114281266,1
5197.0,2.206864289728632,1
5207.0,2.216231832794922,1
5217.0,2.2191276944975185,1
5227.0,2.211301856861646,1
5237.0,2.1924815376666142,1
5247.0,2.168897502781783,1
5257.0,2.1533197152854404,1
5267.0,2.1608066721807853,1
5277.0,2.2007887787527673,1
5287.0,2.2708897415692886,1
5297.0,2.3572493336034115,1
5307.0,2.4396203927721785,1
5317.0,2.4978355531380085,1
5327.0,2.5178017106085067,1
5337.0,2.495477226809477,1
5347.0,2.437840473834223,1
5357.0,2.360716961717981,1
5367.0,2.283845631403028,1
5377.0,2.224270762597614,1
5387.0,2.1904676316048177,1
5397.0,2.1803815766084123,1
5407.0,2.184670976735694,1
5417.0,2.1927004612375507,1
5427.0,2.19735769241936,1
5437.0,2.1966608610683678,1
5447.0,2.1924768199881397,1
5457.0,2.187786218861616,1
5467.0,2.1841528524913625,1
5477.0,2.1807143068488677,1
5487.0,2.175098502959942,1
5497.0,2.16551606449637,1
5507.0,2.1525613571331634,1
5517.0,2.139359116403142,1
5527.0,2.1295332795889306,1
5537.0,2.1237934309559603,1
5547.0,2.1171131953888898,1
5557.0,2.098421132639788,1
5567.0,2.053190678806595,1
5577.0,1.9677045639865482,1
5587.0,1.8333287984538527,1
5597.0,1.649641369099822,1
5607.0,1.4259617510321116,1
5617.0,1.1812656546479379,1
5627.0,0.942245633106231,0
5637.0,0.7377606394442849,0
5647.0,0.5876095060486606,0
5657.0,0.5075183011005827,0
5667.0,0.49148710350434655,0
5677.0,0.4871265300652431,0
5687.0,0.4739303367758513,0
5697.0,0.4452525712390161,0
5707.0,0.40694531372400045,0
5717.0,0.36840888761277535,0
5727.0,0.3628307080424045,0
5737.0,0.35991531744518324,0
5747.0,0.3561589811569553,0
5757.0,0.3477089648700338,0
5767.0,0.3328180295858259,0
5777.0,0.31266757343676094,0
5787.0,0.2906954534365755,0
5797.0,0.2709599335307149,0
5807.0,0.25634126983445843,0
5817.0,0.25495015059738757,0
5827.0,0.25861964772760193,0
5837.0,0.26710303045586997,0
5847.0,0.2713321937338036,0
5857.0,0.26955351848849746,0
5867.0,0.26244927619143155,0
5877.0,0.25163245977093623,0
5887.0,0.23887750879623296,0
5897.0,0.22657748722338625,0
5907.0,0.22243459833069193,0
5917.0,0.21782431954683895,0
5927.0,0.21183716806985692,0
5937.0,0.2036899851526312,0
5947.0,0.19304071467582845,0
5957.0,0.18014353487797358,0
5967.0,0.1793552947541564,0
5977.0,0.18180616054400112,0
5987.0,0.18407538324108813,0
5997.0,0.18544523529620338,0
6007.0,0.1852140791157269,0
6017.0,0.18285162126454477,0
6027.0,0.1781698469318031,0
6037.0,0.1727385430399061,0
6047.0,0.16546453508088316,0
6057.0,0.1566998407617181,0
6067.0,0.1487431090599459,0
6077.0,0.1422505316898685,0
6087.0,0.13394000567103598,0
6097.0,0.12595026920241031,0
6107.0,0.11291360259374318,0
6117.0,0.09687886185377306,0
6127.0,0.08128068484297815,0
6137.0,0.07333129032903432,0
6147.0,0.08475314602098463,0
6157.0,0.10815962816151847,0
6167.0,0.13881071086737776,0
6177.0,0.1707839649361891,0
6187.0,0.19804010247946108,0
6197.0,0.21867483815887467,0
6207.0,0.2328307352773193,0
6217.0,0.24207032884640634,0
6227.0,0.24842222539983838,0
6237.0,0.25344721775517565,0
6247.0,0.2577238644370588,0
6257.0,0.26097129654656037,0
6267.0,0.2626355801283613,0
6277.0,0.26252097634051297,0
6287.0,0.2611143418979965,0
6297.0,0.2599855995896122,0
6307.0,0.2642656248499919,0
6317.0,0.2704071606104259,0
6327.0,0.2774189100272148,0
6337.0,0.28343461896378513,0
6347.0,0.286562441747038,0
6357.0,0.2859640556029982,0
6367.0,0.2827881485042751,0
6377.0,0.2805829580858081,0
6387.0,0.2846840097545978,0
6397.0,0.3000884392847294,0
6407.0,0.32844716215465664,0
6417.0,0.36877357556585133,0
6427.0,0.4118240495717069,0
6437.0,0.45122858162341284,0
6447.0,0.4824063396246238,0
6457.0,0.5151584624646512,0
6467.0,0.5428697708911192,0
6477.0,0.5739870490774034,0
6487.0,0.593573003279527,0
6497.0,0.6028603903022258,0
6507.0,0.6046587634490825,0
6517.0,0.6020694828240264,0
6527.0,0.5990497457343477,0
6537.0,0.5975339133049569,0
6547.0,0.598151029371871,0
6557.0,0.6022095237692549,0
6567.0,0.610044921938999,0
6577.0,0.6209368948644939,0
6587.0,0.6333479461731408,0
6597.0,0.6453926565843264,0
6607.0,0.6553660765484408,0
6617.0,0.6621771791879814,0
6627.0,0.6655846245195656,0
6637.0,0.6661779248847426,0
6647.0,0.6650907522981352,0
6657.0,0.6634941843413749,0
6667.0,0.664418089727429,0
6677.0,0.6671356256014168,0
6687.0,0.6698586535756754,0
6697.0,0.6798796563317968,0
6707.0,0.6872669149149423,0
6717.0,0.6938761009065038,0
6727.0,0.6898901492904851,0
6737.0,0.6750594577355014,0
6747.0,0.6511936667354552,0
6757.0,0.6218178291228565,0
6767.0,0.5914710844647273,0
6777.0,0.564676466136261,0
6787.0,0.5447707675030335,0
6797.0,0.5349035797250817,0
6807.0,0.5333846390979986,0
6817.0,0.5350767577717854,0
6827.0,0.538021279099513,0
6837.0,0.540283160554365,0
6847.0,0.5403914762623521,0
6857.0,0.546064101351537,0
6867.0,0.5541376963417802,0
6877.0,0.554091508376732,0
6887.0,0.5465400852090966,0
6897.0,0.5434467722665073,0
6907.0,0.5462501749457375,0
6917.0,0.5526151944506167,0
6927.0,0.5644147614895103,0
6937.0,0.5817161723423004,0
6947.0,0.6023403601686521,0
6957.0,0.622380792038735,0
6967.0,0.6374477285905662,0
6977.0,0.6439686705296259,0
6987.0,0.6400691096834601,0
6997.0,0.6259150235402088,0
7007.0,0.6035531700043913,0
7017.0,0.5763102626635869,0
7027.0,0.5479063186551396,0
7037.0,0.5216432247013768,0
7047.0,0.5149749191091355,0
7057.0,0.525542137347943,0
7067.0,0.538328997440513,0
7077.0,0.5587274611371146,0
7087.0,0.5891048231850711,0
7097.0,0.6219180037807548,0
7107.0,0.6538788757588552,0
7117.0,0.6819778351119906,0
7127.0,0.7033412199014957,0
7137.0,0.7158081060559549,0
7147.0,0.7187147127682261,0
7157.0,0.7135252194083062,0
7167.0,0.7039194455999055,0
7177.0,0.6951171649685626,0
7187.0,0.6924937703850272,0
7197.0,0.6998650312884462,0
7207.0,0.738640728575596,0
7217.0,0.802030316432284,0
7227.0,0.8769237644429652,0
7237.0,0.9789544734432118,0
7247.0,1.0711237310906483,0
7257.0,1.1493573576945353,0
7267.0,1.2115816491403952,0
7277.0,1.257434749557425,0
7287.0,1.2879094681957073,0
7297.0,1.3050375511155141,0
7307.0,1.3159461575124722,0
7317.0,1.3196227851248732,0
7327.0,1.3204528515157783,0
7337.0,1.3271061551524774,0
7347.0,1.34561376488807,0
7357.0,1.3768434561137606,0
7367.0,1.4165418530047693,0
7377.0,1.457493529032345,0
7387.0,1.4921924291951738,0
7397.0,1.5151888652104732,0
7407.0,1.524795069107433,0
7417.0,1.523800586961634,0
7427.0,1.5188060159568382,0
7437.0,1.5184019118517011,0
7447.0,1.5356585808664498,0
7457.0,1.568104976009082,0
7467.0,1.609329575983358,0
7477.0,1.6480694893132162,0
7487.0,1.6794866892957288,0
7497.0,1.6938415602042534,0
7507.0,1.6841937107904086,0
7517.0,1.653987465797678,0
7527.0,1.6109067738629084,0
7537.0,1.569666299774477,0
7547.0,1.5307906504140116,0
7557.0,1.4989758108428914,0
7567.0,1.4781520302637516,0
7577.0,1.4727085315623718,0
7587.0,1.4816303866219394,0
7597.0,1.4990143667143978,0
7607.0,1.5213249812650063,0
7617.0,1.5470457780080116,0
7627.0,1.564523989097539,0
7637.0,1.566641518190444,0
7647.0,1.5495136079288434,0
7657.0,1.5140204291196937,0
7667.0,1.4662788365652033,0
7677.0,1.416977089298773,0
7687.0,1.3766129904530606,0
7697.0,1.354932376103998,0
7707.0,1.3531601975632401,0
7717.0,1.3647670424262572,0
7727.0,1.377802774995566,0
7737.0,1.3796618207550697,0
7747.0,1.3613546754455954,0
7757.0,1.3200023511223953,0
7767.0,1.2765406352803073,0
7777.0,1.2253246922853456,0
7787.0,1.1750639986509739,0
7797.0,1.1359726940704122,0
7807.0,1.1138230964359792,0
7817.0,1.1070583101955838,0
7827.0,1.1075210060359668,0
7837.0,1.1043510536739578,0
7847.0,1.0880670898856488,0
7857.0,1.0528274463088936,0
7867.0,0.996987820659726,0
7877.0,0.9227988682438804,0
7887.0,0.8358048326406482,0
7897.0,0.7507619871073314,0
7907.0,0.6828203177837544,0
7917.0,0.6245378404790658,0
7927.0,0.5757753083006195,0
7937.0,0.5364036128052803,0
7947.0,0.5049457640316624,0
7957.0,0.48952013566459857,0
7967.0,0.47538063378626416,0
7977.0,0.4561430463251406,0
7987.0,0.4285371643712657,0
7997.0,0.3916635120585106,0
8007.0,0.34667163555967706,0
8017.0,0.3012615093761906,0
8027.0,0.26475144609711776,0
8037.0,0.2413577885509226,0
8047.0,0.22065952501837272,0
8057.0,0.20373443032074118,0
8067.0,0.1956329545162876,0
8077.0,0.18725244718895453,0
8087.0,0.17678780903582564,0
8097.0,0.16395012701713818,0
8107.0,0.1494208476123165,0
8117.0,0.13926976227002624,0
8127.0,0.1302656722810826,0
8137.0,0.1229268869454861,0
8147.0,0.11862508887759438,0
8157.0,0.1183066333519558,0
8167.0,0.1253948214351616,0
8177.0,0.1331045236439794,0
8187.0,0.14018854657369725,0
8197.0,0.14556154164081392,0
8207.0,0.15705717037119826,0
8217.0,0.16646975880456727,0
8227.0,0.17318863225826883,0
8237.0,0.17765366405667093,0
8247.0,0.18946421259151655,0
8257.0,0.20514142486056336,0
8267.0,0.22173320694978327,0
8277.0,0.2388856411950399,0
8287.0,0.2560742212631689,0
8297.0,0.272653006964129,0
8307.0,0.28877788843919516,0
8317.0,0.3022575863093603,0
8327.0,0.3134783095290058,0
8337.0,0.32334944923592956,0
8347.0,0.33134779012203325,0
8357.0,0.3374585758170881,0
8367.0,0.34155900497276726,0
8377.0,0.34348700611183497,0
8387.0,0.34313841317677807,0
8397.0,0.3405196771793483,0
8407.0,0.3357912366713648,0
8417.0,0.32935239277078976,0
8427.0,0.3219107877088587,0
8437.0,0.31441414299646664,0
8447.0,0.3078053193657968,0
8457.0,0.3040326405500602,0
8467.0,0.30171459789993227,0
8477.0,0.30054684776896734,0
8487.0,0.3002626452460227,0
8497.0,0.3005868159007934,0
8507.0,0.30109327498766314,0
8517.0,0.30098557886905186,0
8527.0,0.2990692453842568,0
8537.0,0.2940386507555022,0
8547.0,0.2849043505540359,0
8557.0,0.2713326954232985,0
8567.0,0.25382300896743476,0
8577.0,0.23373220785205695,0
8587.0,0.2131074567380925,0
8597.0,0.2178201123740209,0
8607.0,0.22923649212643898,0
8617.0,0.24339079438716563,0
8627.0,0.26106310241320685,0
8637.0,0.2869527354177295,0
8647.0,0.32001878739447187,0
8657.0,0.35085201690254175,0
8667.0,0.37829037825491896,0
8677.0,0.4024360438528741,0
8687.0,0.42414461841340145,0
8697.0,0.4498954291624715,0
8707.0,0.4759321540912619,0
8717.0,0.5057151613860822,0
8727.0,0.5312646338008712,0
8737.0,0.5503202426259366,0
8747.0,0.563354538137321,0
8757.0,0.5713840916089954,0
8767.0,0.5756817720686048,0
8777.0,0.5775125284795632,0
8787.0,0.5779773787578928,0
8797.0,0.5779898774258597,0
8807.0,0.5783277688816486,0
8817.0,0.5796651318321275,0
8827.0,0.582531678651816,0
8837.0,0.5872254128314629,0
8847.0,0.5937548138434401,0
8857.0,0.6018785571967465,0
8867.0,0.6117704151354384,0
8877.0,0.6338533049473336,0
8887.0,0.654833896639986,0
8897.0,0.6736373437488692,0
8907.0,0.6896907796990823,0
8917.0,0.7030255479386469,0
8927.0,0.7143041440147411,0
8937.0,0.7445285946664026,0
8947.0,0.7812980495264179,0
8957.0,0.8214424330100132,0
8967.0,0.8625956286540861,0
8977.0,0.9017294612828264,0
8987.0,0.9358836555792374,0
8997.0,0.9630362645427424,0
9007.0,1.0111772967440285,0
9017.0,1.055156575108076,0
9027.0,1.0915318828663898,0
9037.0,1.1377873757989594,0
9047.0,1.1873440787699125,0
9057.0,1.2402601075849433,0
9067.0,1.294527698738569,0
9077.0,1.3464772077286569,0
9087.0,1.3927136815862875,0
9097.0,1.431605641976755,0
9107.0,1.495023898195003,0
9117.0,1.5535889194036865,0
9127.0,1.5993367149893287,0
9137.0,1.6411524865149199,0
9147.0,1.7002376051902113,0
9157.0,1.748181502040235,0
9167.0,1.7850180363466932,0
9177.0,1.8114552324769702,1
9187.0,1.828638130301366,1
9197.0,1.837888024582804,1
9207.0,1.840448056968045,1
9217.0,1.8372622459268175,1
9227.0,1.8288247171426635,1
9237.0,1.815145528256175,1
9247.0,1.7958768987973381,1
9257.0,1.7706113476814802,1
9267.0,1.739290600309767,1
9277.0,1.702573048635871,1
9287.0,1.6619580617288274,1
9297.0,1.6195326127358374,1
9307.0,1.5774236642094517,1
9317.0,1.5373063022756435,1
9327.0,1.5003772358670333,1
9337.0,1.483984832322654,1
9347.0,1.483582362518344,1
9357.0,1.478865834581202,1
9367.0,1.472139016995846,1
9377.0,1.466544675744975,1
9387.0,1.4641920979433127,1
9397.0,1.4646213255295146,1
9407.0,1.464390861880993,1
9417.0,1.4743698185521275,1
9427.0,1.4770255947424829,1
9437.0,1.457390127631899,1
9447.0,1.4594635337885977,1
9457.0,1.4546492264390132,1
9467.0,1.444215021228595,1
9477.0,1.4387803881909598,1
9487.0,1.4467071768236992,1
9497.0,1.4751649778042335,1
9507.0,1.5510312820386236,1
9517.0,1.633895867377108,1
9527.0,1.7291418305263009,1
9537.0,1.809614465787694,1
9547.0,1.8687946935392323,1
9557.0,1.906659384669267,1
9567.0,1.9272636013891105,1
9577.0,1.9368196336182852,1
9587.0,1.9414569802842983,1
9597.0,1.9453718825458628,1
9607.0,1.9500243726505513,1
9617.0,1.9582250114189792,1
9627.0,1.966739536182276,1
9637.0,1.9735886554285953,1
9647.0,1.978067930951413,1
9657.0,1.9794138050074483,1
9667.0,1.9767459921736528,1
9677.0,1.9670042030423618,1
9687.0,1.9488743865423106,1
9697.0,1.9202181998264023,1
9707.0,1.8815805361767184,1
9717.0,1.8373743363323196,1
9727.0,1.7959817437287762,1
9737.0,1.767264649064898,1
9747.0,1.7577536727841314,1
9757.0,1.7661344113520365,1
9767.0,1.7824994553359927,1
9777.0,1.8233079832923056,1
9787.0,1.8519406294555798,1
9797.0,1.8724828394943693,1
9807.0,1.8679052016834108,1
9817.0,1.8423770305190956,1
9827.0,1.8041885400323383,1
9837.0,1.7635909222588375,1
9847.0,1.735670808116614,1
9857.0,1.7077044538696073,1
9867.0,1.6864144795003617,1
9877.0,1.6809017306232044,1
9887.0,1.6809549477382144,1
9897.0,1.6830843278510157,1
9907.0,1.6844733972655934,1
9917.0,1.6827159963930027,1
9927.0,1.68567102053918,1
9937.0,1.695605610282345,1
9947.0,1.6939295998710924,1
9957.0,1.6750412520344375,1
9967.0,1.6417150733150128,1
9977.0,1.6013136653411584,1
9987.0,1.5651878843250506,1
9997.0,1.5455092677648983,1
10007.0,1.5498862375732554,1
10017.0,1.5765640898806137,1
10027.0,1.613918913376744,1
10037.0,1.6450325327608704,1
10047.0,1.654467240838094,1
10057.0,1.6339097517199423,1
10067.0,1.585077995197753,1
10077.0,1.5195421130382918,1
10087.0,1.4650436728121496,1
10097.0,1.4435502707255647,1
10107.0,1.4594286696043306,1
10117.0,1.4897416041069789,1
10127.0,1.522148400187773,1
10137.0,1.5446588235084153,1
10147.0,1.5629779792485916,1
10157.0,1.5617724656900072,1
10167.0,1.5385585220467375,1
10177.0,1.497874347039502,1
10187.0,1.447120872460507,1
10197.0,1.3947727475587521,1
10207.0,1.3485982079242906,1
10217.0,1.3157640574760223,1
10227.0,1.2968721875927405,1
10237.0,1.2929978427159048,1
10247.0,1.2956589263716296,1
10257.0,1.2958779424736033,1
10267.0,1.2960180603913034,1
10277.0,1.2890356316705096,1
10287.0,1.268373145618523,1
10297.0,1.2473631333564428,1
10307.0,1.211882791560646,1
10317.0,1.1675549327454586,1
10327.0,1.1187989874933384,1
10337.0,1.0742545104484347,0
10347.0,1.0413765724757504,0
10357.0,1.023090263612049,0
10367.0,1.015675258718642,0
10377.0,1.00935125264233,0
10387.0,0.9919018849475493,0
10397.0,0.9535604433043249,0
10407.0,0.8905018972679137,0
10417.0,0.8059435477132446,0
10427.0,0.7093806936559068,0
10437.0,0.6231283499136135,0
10447.0,0.5580108802114668,0
10457.0,0.5131829141069517,0
10467.0,0.49148350512736233,0
10477.0,0.4887967667983242,0
10487.0,0.49648699297680354,0
10497.0,0.5057540031388299,0
10507.0,0.5104799081690292,0
10517.0,0.507795672773645,0
10527.0,0.4990992926150055,0
10537.0,0.49379506610863355,0
10547.0,0.48656458306384226,0
10557.0,0.4780113631034119,0
10567.0,0.4684035767314816,0
10577.0,0.45784491558035556,0
10587.0,0.4463914298879098,0
10597.0,0.4340875200560479,0
10607.0,0.42097217233029427,0
10617.0,0.4083577213924805,0
10627.0,0.3993315947785558,0
10637.0,0.3890848181719705,0
10647.0,0.3782525450764521,0
10657.0,0.3678556681507893,0
10667.0,0.3591680200640194,0
10677.0,0.3533933327477473,0
10687.0,0.35124742323911423,0
10697.0,0.35261249606547673,0
10707.0,0.3564204039826929,0
10717.0,0.36084595426996374,0
10727.0,0.36590539071862616,0
10737.0,0.36800498278964316,0
10747.0,0.3661115468438179,0
10757.0,0.3605732765848903,0
10767.0,0.3523337148346966,0
10777.0,0.3424490357160196,0
10787.0,0.33164362078854176,0
10797.0,0.32010692306352334,0
10807.0,0.3076008452240327,0
10817.0,0.2937757031484201,0
10827.0,0.2785202225492029,0
10837.0,0.26220754359871745,0
10847.0,0.24574169552452962,0
10857.0,0.2303396209841389,0
10867.0,0.21710122463277143,0
10877.0,0.2066090465307499,0
10887.0,0.19882791866944782,0
10897.0,0.19333786496009375,0
10907.0,0.18967479120024727,0
10917.0,0.1875099956758902,0
10927.0,0.18656108134361649,0
10937.0,0.1863426722664825,0
10947.0,0.18596708550101132,0
10957.0,0.18414186842282282,0
10967.0,0.17939481707446214,0
10977.0,0.1704830471466832,0
10987.0,0.16252396021759052,0
10997.0,0.15091727252186554,0
11007.0,0.1373535752054124,0
11017.0,0.13273248753313943,0
11027.0,0.1273898608642105,0
11037.0,0.12295167821496492,0
11047.0,0.12072891143946146,0
11057.0,0.12127531776995101,0
11067.0,0.12624261184103575,0
11077.0,0.1352309413646478,0
11087.0,0.14744134363874237,0
11097.0,0.16135579303763917,0
11107.0,0.1775115159509422,0
11117.0,0.1960595684678723,0
11127.0,0.21653984363105724,0
11137.0,0.23785998101681904,0
11147.0,0.25849777152770137,0
11157.0,0.27686253777012537,0
11167.0,0.30387584002102785,0
11177.0,0.32641959055089387,0
11187.0,0.34412523456945243,0
11197.0,0.35899185436391334,0
11207.0,0.3737289387797535,0
11217.0,0.3909621747895266,0
11227.0,0.412424661547255,0
11237.0,0.43849285551796313,0
11247.0,0.4682826945927135,0
11257.0,0.5001271478371524,0
11267.0,0.5320823404574648,0
11277.0,0.562266712793132,0
11287.0,0.5890369044970539,0
11297.0,0.6110845397754265,0
11307.0,0.6275273965027331,0
11317.0,0.6380229499059775,0
11327.0,0.6428863618415595,0
11337.0,0.6431692554415027,0
11347.0,0.6406553143049937,0
11357.0,0.6377416469133094,0
11367.0,0.6372251892213345,0
11377.0,0.6421825990152581,0
11387.0,0.6675751165311984,0
11397.0,0.7053052316973728,0
11407.0,0.7574415968737098,0
11417.0,0.8406431962105629,0
11427.0,0.9709281132345355,0
11437.0,1.1222964195363685,0
11447.0,1.2918342746068712,0
11457.0,1.44832870161974,0
11467.0,1.592133737916096,0
11477.0,1.7040154805576935,0
11487.0,1.7814941263385466,0
11497.0,1.8270726930275418,1
11507.0,1.8478505796403137,1
11517.0,1.8540630284241635,1
11527.0,1.8566120644009305,1
11537.0,1.8641723813815028,1
11547.0,1.8817089266249316,1
11557.0,1.9125208505026032,1
11567.0,1.951126407153058,1
11577.0,1.9911197760420416,1
11587.0,2.0266325154414244,1
11597.0,2.0541761158664293,1
11607.0,2.073066052848528,1
11617.0,2.0847455539762025,1
11627.0,2.0916091937718937,1
11637.0,2.0958859215409897,1
11647.0,2.098932258424739,1
11657.0,2.1010228227654357,1
11667.0,2.1015069389602963,1
11677.0,2.0991075491803284,1
11687.0,2.0921711987176295,1
11697.0,2.078760093632892,1
11707.0,2.0565701833901295,1
11717.0,2.0227926168517096,1
11727.0,1.974194977435205,1
11737.0,1.9077691158901224,1
11747.0,1.8221793380193958,1
11757.0,1.7199651486892544,1
11767.0,1.6100389941649522,1
11777.0,1.5271126171997964,1
11787.0,1.4677341065957554,1
11797.0,1.4411959102630685,1
11807.0,1.4683518829159583,1
11817.0,1.5578988331078116,1
11827.0,1.6704247523106663,1
11837.0,1.7823622936641927,1
11847.0,1.8843390776486486,1
11857.0,1.9694463957261323,1
11867.0,2.0207873638276554,1
11877.0,2.0426512143106663,1
11887.0,2.043125543619432,1
11897.0,2.031305712083376,1
11907.0,2.0149104349700746,1
11917.0,1.9988968612868323,1
11927.0,1.9853704040294304,1
11937.0,1.9746070275121488,1
11947.0,1.9666429396328788,1
11957.0,1.96273913750943,1
11967.0,1.9659865436718738,1
11977.0,1.9804890587175832,1
11987.0,2.0092850732116485,1
11997.0,2.0521980215623716,1
12007.0,2.1050254245077653,1
12017.0,2.160498229880885,1
12027.0,2.2104041453558367,1
12037.0,2.24796205500499,1
12047.0,2.269636452102018,1
12057.0,2.275759893193758,1
12067.0,2.269665838666931,1
12077.0,2.2556407125358557,1
12087.0,2.236725129474748,1
12097.0,2.2136913439736463,1
12107.0,2.1858811752591203,1
12117.0,2.1533239527634502,1
12127.0,2.1187049547983445,1
12137.0,2.0878926259614974,1
12147.0,2.0866677137755163,1
12157.0,2.1160481376600417,1
12167.0,2.163995567802659,1
12177.0,2.225931279629246,1
12187.0,2.296605804871724,1
12197.0,2.3678540503602075,1
12207.0,2.432426012264858,1
12217.0,2.485144665094753,1
12227.0,2.5236602523461076,1
12237.0,2.548307228516782,1
12247.0,2.5611979144475976,1
12257.0,2.564908379980044,1
12267.0,2.5612908526612173,1
12277.0,2.5509105306994364,1
12287.0,2.5332842145403767,1
12297.0,2.507709272371436,1
12307.0,2.474293969762374,1
12317.0,2.4348337572287577,1
12327.0,2.3931964739137603,1
12337.0,2.3548379834153548,1
12347.0,2.3252517943745907,1
12357.0,2.3077636301920545,1
12367.0,2.301751430231471,1
12377.0,2.3023592980333047,1
12387.0,2.3018874986183784,1
12397.0,2.292046528568898,1
12407.0,2.265971880024301,1
12417.0,2.2193189702363467,1
12427.0,2.150378012364128,1
12437.0,2.0595537307761793,1
12447.0,1.9689348123997807,1
12457.0,1.9128331071333453,1
12467.0,1.8482861359901204,1
12477.0,1.7676551276484371,1
12487.0,1.6691676842935692,1
12497.0,1.5630210502733872,1
12507.0,1.4424219646387346,1
12517.0,1.3063227663813302,1
12527.0,1.1676953415556772,1
12537.0,1.0505531818756833,0
12547.0,0.9716474377652742,0
12557.0,0.9301277110896145,0
12567.0,0.9243782790575292,0
12577.0,0.9437114930459931,0
12587.0,0.9875258760317366,0
12597.0,1.0275127027127442,0
12607.0,1.0553343107208852,0
12617.0,1.075179813689047,0
12627.0,1.0857765742796754,0
12637.0,1.088549921947155,0
12647.0,1.0883375120561083,0
12657.0,1.0941833328357802,0
12667.0,1.1136317484398874,0
12677.0,1.1388396902785913,0
12687.0,1.1667284089343757,0
12697.0,1.1942990333246029,0
12707.0,1.2195510440023831,0
12717.0,1.2419386273222233,0
12727.0,1.2624664979606803,0
12737.0,1.2834388427616623,0
12747.0,1.3084095336928607,0
12757.0,1.3479185339074509,0
12767.0,1.394625427775565,0
12777.0,1.4467982500453045,0
12787.0,1.5007097665311513,0
12797.0,1.5514889490939132,0
12807.0,1.5943594038131765,0
12817.0,1.6258605832641977,0
12827.0,1.644682897625343,0
12837.0,1.6608339001596262,0
12847.0,1.671072466903668,0
12857.0,1.6729991888473856,0
12867.0,1.6698722099627803,0
12877.0,1.6638136322599129,0
12887.0,1.6555678165535732,0
12897.0,1.6448775820784771,0
12907.0,1.6311380264987037,0
12917.0,1.6139796419737813,0
12927.0,1.5935631454134844,0
12937.0,1.5705362537803165,0
12947.0,1.5457508967170073,0
12957.0,1.51992297266793,0
12967.0,1.4934050147506854,0
12977.0,1.4661492726991934,0
12987.0,1.4378258116891018,0
12997.0,1.4079871494706595,0
13007.0,1.376156730817108,0
13017.0,1.3417593730991233,0
13027.0,1.303900193578729,0
13037.0,1.2611070120362546,0
13047.0,1.211234973353752,0
13057.0,1.151749442970938,0
13067.0,1.080512163216364,0
13077.0,0.996986067604267,0
13087.0,0.9035276936964283,0
13097.0,0.8062381325873549,0
13107.0,0.714621455834521,0
13117.0,0.6395481203153563,0
13127.0,0.5962952850558623,0
13137.0,0.5726292504501833,0
13147.0,0.5608116813412984,0
13157.0,0.5532063794363119,0
13167.0,0.5469441537077229,0
13177.0,0.5254285003687709,0
13187.0,0.4893580556881286,0
13197.0,0.4526151428380013,0
13207.0,0.42145850282762576,0
13217.0,0.39741473195635346,0
13227.0,0.3820653330825182,0
13237.0,0.3735284820422726,0
13247.0,0.36953014398298356,0
13257.0,0.3694658835482713,0
13267.0,0.375023547701151,0
13277.0,0.38620729848279156,0
13287.0,0.40315156612406267,0
13297.0,0.42363063171226933,0
13307.0,0.4432724405874386,0
13317.0,0.4574578457042785,0
13327.0,0.4641232142679831,0
13337.0,0.4664390593054044,0
13347.0,0.4737116178217785,0
13357.0,0.4981117260208705,0
13367.0,0.5482593528283584,0
13377.0,0.6254066903946263,0
13387.0,0.7357935907813841,0
13397.0,0.8669355857232173,0
13407.0,0.996474701891636,0
13417.0,1.1124010821365506,0
13427.0,1.2066973646819614,0
13437.0,1.2759806998053738,0
13447.0,1.3218501042215438,0
13457.0,1.3652460815620096,0
13467.0,1.3932210278319213,0
13477.0,1.410759453662344,0
13487.0,1.4218127942293033,0
13497.0,1.4292736255512375,0
13507.0,1.4353536645109655,0
13517.0,1.441875212334264,0
13527.0,1.4501332443250239,0
13537.0,1.4603867942770306,0
13547.0,1.472419000271714,0
13557.0,1.498063032929328,0
13567.0,1.5144521746036417,0
13577.0,1.5190545524108185,0
13587.0,1.5131762940498832,0
13597.0,1.5025117432541781,0
13607.0,1.4958585663737325,0
13617.0,1.5018169178706433,0
13627.0,1.5302251597544814,0
13637.0,1.57768681946124,0
13647.0,1.626803110627028,0
13657.0,1.664511425521912,0
13667.0,1.6793030169408238,0
13677.0,1.664085132897583,0
13687.0,1.6175297116852811,0
13697.0,1.545729644524577,0
13707.0,1.46833917454286,0
13717.0,1.3824338232351854,0
13727.0,1.2939757920936326,0
13737.0,1.2158201727769702,0
13747.0,1.1621788670984685,0
13757.0,1.1304758556201713,0
13767.0,1.123935803248695,0
13777.0,1.1272765167896401,0
13787.0,1.1409570646652603,0
13797.0,1.1560869325968182,0
13807.0,1.1643867835905546,0
13817.0,1.1612703570424787,0
13827.0,1.145465800732957,0
13837.0,1.131158588986333,0
13847.0,1.110662705429109,0
13857.0,1.0905853007567292,0
13867.0,1.083782879256054,0
13877.0,1.0931600190601758,0
13887.0,1.113112495804299,0
13897.0,1.141725431414169,0
13907.0,1.174336644739849,0
13917.0,1.2022276903828668,0
13927.0,1.2085944024928943,0
13937.0,1.1922723530318364,0
13947.0,1.1617321422986875,0
13957.0,1.1223293117756707,0
13967.0,1.0885609756614125,0
13977.0,1.112475080135682,0
13987.0,1.181064755030885,0
13997.0,1.280928560335729,0
14007.0,1.4074885680418667,0
14017.0,1.5468502061965386,0
14027.0,1.6875600617746442,0
14037.0,1.8067604598872293,1
14047.0,1.8957502773976311,1
14057.0,1.9528319125161149,1
14067.0,1.9822830365112378,1
14077.0,1.9922017690493443,1
14087.0,1.9919094258026044,1
14097.0,1.9896296936767894,1
14107.0,1.991007640441679,1
14117.0,1.9986580422002094,1
14127.0,2.017240819413252,1
14137.0,2.0364637799902123,1
14147.0,2.0521928453275224,1
14157.0,2.064918400470897,1
14167.0,2.0737688122700195,1
14177.0,2.0729824862033035,1
14187.0,2.061393743945012,1
14197.0,2.040012286019679,1
14207.0,2.0142160819923127,1
14217.0,1.9999980429679907,1
14227.0,1.9917052493731007,1
14237.0,1.9890292400835112,1
14247.0,1.9891157487339068,1
14257.0,1.9919330080330706,1
14267.0,1.9899050774316729,1
14277.0,1.9718785836572823,1
14287.0,1.9280316220154066,1
14297.0,1.8740156883223473,1
14307.0,1.8068403762472975,1
14317.0,1.7416256977337041,1
14327.0,1.6548951046133167,1
14337.0,1.5723729392262067,1
14347.0,1.5227530706953996,1
14357.0,1.4832599514497256,1
14367.0,1.4575456127569533,1
14377.0,1.445261269737843,1
14387.0,1.4430526904126215,1
14397.0,1.4460897558649868,1
14407.0,1.4494845217729655,1
14417.0,1.4492356637083212,1
14427.0,1.4426710278439816,1
14437.0,1.4285238887370677,1
14447.0,1.4292762708539914,1
14457.0,1.4247416527271737,1
14467.0,1.4137242685715945,1
14477.0,1.397786796233007,1
14487.0,1.3790723676666834,1
14497.0,1.3598112638613977,1
14507.0,1.3416476284200183,1
14517.0,1.325042976378879,1
14527.0,1.3089873072555047,1
14537.0,1.2910225478767106,1
14547.0,1.2674520329294394,1
14557.0,1.2337376045948754,1
14567.0,1.1852642033268577,1
14577.0,1.1185929352181723,1
14587.0,1.0330276856262894,0
14597.0,0.9320226502663382,0
14607.0,0.8330102760773,0
14617.0,0.7507194185818195,0
14627.0,0.6824986946852876,0
14637.0,0.636674726559582,0
14647.0,0.6270815529208762,0
14657.0,0.63158442716398,0
14667.0,0.6382494885739964,0
14677.0,0.6372695808749714,0
14687.0,0.6234191658670856,0
14697.0,0.5961689359904355,0
14707.0,0.5585671087635531,0
14717.0,0.5156413630285374,0
14727.0,0.47948668467994393,0
14737.0,0.4493337376703578,0
14747.0,0.42456226412091547,0
14757.0,0.40539313550251244,0
14767.0,0.39097343124132355,0
14777.0,0.3798783572560026,0
14787.0,0.37042932504431364,0
14797.0,0.3608468581454845,0
14807.0,0.34939918796672975,0
14817.0,0.33466051793303087,0
14827.0,0.3158480377812084,0
14837.0,0.29311757879138417,0
14847.0,0.2676973772475735,0
14857.0,0.24222929227117676,0
14867.0,0.2223615049496714,0
14877.0,0.2097556365068882,0
14887.0,0.19982269839726916,0
14897.0,0.19179965475702992,0
14907.0,0.1844289794435292,0
14917.0,0.18253624099127191,0
14927.0,0.18527122806422913,0
14937.0,0.1863541283808884,0
14947.0,0.19477301286331478,0
14957.0,0.2105785034443368,0
14967.0,0.22444322620142526,0
14977.0,0.23461771118994396,0
14987.0,0.24074992404394863,0
14997.0,0.2432795409211415,0
15007.0,0.2432430683147282,0
15017.0,0.24194752161160882,0
15027.0,0.24061827365084643,0
15037.0,0.2401012872281536,0
15047.0,0.24064200007564912,0
15057.0,0.24176853557847583,0
15067.0,0.24236828499456425,0
15077.0,0.24101753287149702,0
15087.0,0.23646738177276427,0
15097.0,0.22808154413319498,0
15107.0,0.21607498666040026,0
15117.0,0.20152308666919896,0
15127.0,0.1950838480096346,0
15137.0,0.18959095340745954,0
15147.0,0.1853011533356201,0
15157.0,0.18292258555824528,0
15167.0,0.18223185992998522,0
15177.0,0.18215388904277802,0
15187.0,0.18115813708988732,0
15197.0,0.18006989806596946,0
15207.0,0.1803516113212514,0
15217.0,0.17730004005244288,0
15227.0,0.17485796226206776,0
15237.0,0.16996784955760813,0
15247.0,0.16174421205834044,0
15257.0,0.15074341927342322,0
15267.0,0.13778925963604832,0
15277.0,0.12407708147377977,0
15287.0,0.12212606864445702,0
15297.0,0.1225574482232813,0
15307.0,0.12289723628416949,0
15317.0,0.12348119104895794,0
15327.0,0.12441715882403545,0
15337.0,0.12553268992391436,0
15347.0,0.12646337409005248,0
15357.0,0.12685601985539033,0
15367.0,0.12787334667491226,0
15377.0,0.13091893901814178,0
15387.0,0.1313105528941985,0
15397.0,0.12899994899733305,0
15407.0,0.1305357828589024,0
15417.0,0.1328301406492362,0
15427.0,0.13448201919700634,0
15437.0,0.13519812281274426,0
15447.0,0.1346428333209144,0
15457.0,0.13247843383701735,0
15467.0,0.12851275735150797,0
15477.0,0.1228665187396499,0
15487.0,0.11599984510425962,0
15497.0,0.10851328524996057,0
15507.0,0.1008206791526007,0
15517.0,0.09296794130793122,0
15527.0,0.08479450071205444,0
15537.0,0.08372882092256095,0
15547.0,0.08293275410124332,0
15557.0,0.08202989567721197,0
15567.0,0.08184113358832268,0
15577.0,0.0879701987217339,0
15587.0,0.09346816870917518,0
15597.0,0.09754288111949935,0
15607.0,0.099383612892842,0
15617.0,0.09844077610013682,0
15627.0,0.09461345257963005,0
15637.0,0.08962804603204011,0
15647.0,0.08253446178482084,0
15657.0,0.07300420383902982,0
15667.0,0.06240284433069104,0
15677.0,0.054182432445258735,0
15687.0,0.047647060169952196,0
15697.0,0.04303208986662359,0
15707.0,0.040405924399577534,0
15717.0,0.039598301098286125,0
15727.0,0.043699683885066405,0
15737.0,0.05037958518383137,0
15747.0,0.05723288472123328,0
15757.0,0.07882064528995572,0
15767.0,0.10352162212322777,0
15777.0,0.12701302737900766,0
15787.0,0.14961885812223757,0
15797.0,0.16919966218272608,0
15807.0,0.18596090520782177,0
15817.0,0.20128440366192377,0
15827.0,0.21894637979472886,0
15837.0,0.236815040852057,0
15847.0,0.25364061797759097,0
15857.0,0.2680064582427667,0
15867.0,0.2792503072743963,0
15877.0,0.2884074084915782,0
15887.0,0.2956571190006929,0
15897.0,0.30402351118919424,0
15907.0,0.3136231357636965,0
15917.0,0.32448684915784376,0
15927.0,0.3376170101430347,0
15937.0,0.3533833553570537,0
15947.0,0.3714332221732879,0
15957.0,0.3907604451503861,0
15967.0,0.40991911421796356,0
15977.0,0.42731979300283107,0
15987.0,0.4415147807925871,0
15997.0,0.4514043450804376,0
16007.0,0.45634009887374893,0
16017.0,0.456128728129893,0
16027.0,0.4509577304142991,0
16037.0,0.44128828433351325,0
16047.0,0.42777186448022253,0
16057.0,0.4112179199212712,0
16067.0,0.39257767148461287,0
16077.0,0.37287179702229106,0
16087.0,0.3537003438498998,0
16097.0,0.3370558977413567,0
16107.0,0.3191877416728902,0
16117.0,0.3006533112849058,0
16127.0,0.28567626536952384,0
16137.0,0.27944140066213724,0
16147.0,0.27189986282042095,0
16157.0,0.26316587154871673,0
16167.0,0.2538704001750023,0
16177.0,0.24550015815527526,0
16187.0,0.24022952360248045,0
16197.0,0.23991889341300385,0
16207.0,0.2445519457349445,0
16217.0,0.2542081276676665,0
16227.0,0.2609592004362577,0
16237.0,0.2635775622911177,0
16247.0,0.2613006813477761,0
16257.0,0.2538550573730862,0
16267.0,0.2416971236689533,0
16277.0,0.22614551969557534,0
16287.0,0.20929277746538555,0
16297.0,0.1936249728436239,0
16307.0,0.1813540011105248,0
16317.0,0.17362614439016533,0
16327.0,0.1700289897687356,0
16337.0,0.1688597402013121,0
16347.0,0.16807098461217357,0
16357.0,0.16623987149163819,0
16367.0,0.16304522175382602,0
16377.0,0.15919127338135397,0
16387.0,0.155917081174212,0
16397.0,0.15425955039844094,0
16407.0,0.15439636626807107,0
16417.0,0.15552572822079092,0
16427.0,0.15633974390949995,0
16437.0,0.15661021273794126,0
16447.0,0.16279715157224936,0
16457.0,0.1676636365266716,0
16467.0,0.1701187950841461,0
16477.0,0.16922603716811818,0
16487.0,0.1645547918058522,0
16497.0,0.15708993314742276,0
16507.0,0.14897929553229963,0
16517.0,0.13891997599510253,0
16527.0,0.12832948537036615,0
16537.0,0.11831128105303988,0
16547.0,0.10945953702469507,0
16557.0,0.10189122699691536,0
16567.0,0.09541175127806498,0
16577.0,0.0915437693086111,0
16587.0,0.09360475265529061,0
16597.0,0.09481695155518505,0
16607.0,0.09752006156478941,0
16617.0,0.09954856032382511,0
16627.0,0.10090276908847523,0
16637.0,0.10156635087754283,0
16647.0,0.10145703993271878,0
16657.0,0.10038133101888465,0
16667.0,0.09802766663035203,0
16677.0,0.0940184482920776,0
16687.0,0.08802040042663314,0
16697.0,0.07989099650571717,0
16707.0,0.06982358090551205,0
16717.0,0.06532633183004297,0
16727.0,0.06008304493710411,0
16737.0,0.05351552996876194,0
16747.0,0.0462688084828604,0
16757.0,0.039203267357316364,0
16767.0,0.03312778881828042,0
16777.0,0.03212416774805656,0
16787.0,0.03400520160647384,0
16797.0,0.03478836499841797,0
16807.0,0.03393932711079885,0
16817.0,0.03148749108225067,0
16827.0,0.03220519349088686,0
16837.0,0.04213801349706489,0
16847.0,0.05639637572314536,0
16857.0,0.07096061801784881,0
16867.0,0.0826954222799684,0
16877.0,0.09110822132061776,0
16887.0,0.0966074199753302,0
16897.0,0.10040843818148182,0
16907.0,0.10422202891626363,0
16917.0,0.10987168373318838,0
16927.0,0.11889139676559007,0
16937.0,0.13202518080445275,0
16947.0,0.14879641172934638,0
16957.0,0.16768122094188653,0
16967.0,0.18690278443335157,0
16977.0,0.20515820847692834,0
16987.0,0.22184788498713198,0
16997.0,0.23688466965483498,0
17007.0,0.250343021861852,0
17017.0,0.26251065240698246,0
17027.0,0.2728840407022296,0
17037.0,0.28106262371560664,0
17047.0,0.2877500636666279,0
17057.0,0.29231238136547966,0
17067.0,0.2952308151463511,0
17077.0,0.296988841773306,0
17087.0,0.2978765118892076,0
17097.0,0.2978520656205734,0
17107.0,0.29655218481799517,0
17117.0,0.2934733374159932,0
17127.0,0.2882742959511661,0
17137.0,0.28109153770153356,0
17147.0,0.2727039401036141,0
17157.0,0.2643731721829361,0
17167.0,0.25734902078528077,0
17177.0,0.2523717789617859,0
17187.0,0.2497495430715368,0
17197.0,0.2564631967021285,0
17207.0,0.2617228071247436,0
17217.0,0.2641307020105954,0
17227.0,0.26271693456005885,0
17237.0,0.25707575837156493,0
17247.0,0.25010159992133857,0
17257.0,0.2442237405930885,0
17267.0,0.23662146635854853,0
17277.0,0.2340945936043593,0
17287.0,0.23067521694652976,0
17297.0,0.23147813324807354,0
17307.0,0.2498337156228665,0
17317.0,0.26816269022797473,0
17327.0,0.2833801922503219,0
17337.0,0.29479730203272736,0
17347.0,0.30221020321799075,0
17357.0,0.3091809846927589,0
17367.0,0.3274023548607764,0
17377.0,0.34282495322862805,0
17387.0,0.3544486607695533,0
17397.0,0.36185543522183783,0
17407.0,0.3651459288332634,0
17417.0,0.3648174049737962,0
17427.0,0.36161465559279393,0
17437.0,0.35638257455394284,0
17447.0,0.3499386892731929,0
17457.0,0.3429775043038241,0
17467.0,0.33602991559761275,0
17477.0,0.3295011656994521,0
17487.0,0.3237693198874494,0
17497.0,0.31926912395432194,0
17507.0,0.3166105744157115,0
17517.0,0.3157456196288108,0
17527.0,0.3192111062416907,0
17537.0,0.32173936914761203,0
17547.0,0.3236250817710693,0
17557.0,0.3265339919326726,0
17567.0,0.327639977598951,0
17577.0,0.3261047603000567,0
17587.0,0.3213903527862067,0
17597.0,0.3131346399388435,0
17607.0,0.3075418616929582,0
17617.0,0.30293896099983075,0
17627.0,0.29367995742871994,0
17637.0,0.28430947005261814,0
17647.0,0.276222355962721,0
17657.0,0.26670938965046626,0
17667.0,0.257007427918148,0
17677.0,0.24920534459221733,0
17687.0,0.24483170126252235,0
17697.0,0.24445630962433415,0
17707.0,0.24756696510425302,0
17717.0,0.2571078810603392,0
17727.0,0.275302712471617,0
17737.0,0.2942975989819998,0
17747.0,0.31257840673647425,0
17757.0,0.3289674498722681,0
17767.0,0.34268920970151545,0
17777.0,0.35354696958810183,0
17787.0,0.3619756444879546,0
17797.0,0.3688218613478044,0
17807.0,0.374912685855776,0
17817.0,0.380619383037194,0
17827.0,0.38563262045967905,0
17837.0,0.38905401890969915,0
17847.0,0.38974603221310195,0
17857.0,0.3867690914997457,0
17867.0,0.37973381071184825,0
17877.0,0.3689790915862402,0
17887.0,0.3555739736011281,0
17897.0,0.34117407140420486,0
17907.0,0.3277434376959138,0
17917.0,0.31712889830338503,0
17927.0,0.3105105890781855,0
17937.0,0.3079023344932374,0
17947.0,0.308063026537104,0
17957.0,0.30902817593074416,0
17967.0,0.30892141048868726,0
17977.0,0.30651177156515597,0
17987.0,0.30133410526454407,0
17997.0,0.29348881701108404,0
18007.0,0.2833072980693776,0
18017.0,0.2710788456672686,0
18027.0,0.2569959441100004,0
18037.0,0.24132167029228965,0
18047.0,0.22773863157176572,0
18057.0,0.21812388387080045,0
18067.0,0.2073713022640839,0
18077.0,0.19699817812211662,0
18087.0,0.19137910870877253,0
18097.0,0.19531804832417687,0
18107.0,0.20504528485964096,0
18117.0,0.22033903564301766,0
18127.0,0.2400773249789207,0
18137.0,0.26263796195223005,0
18147.0,0.28640031485835726,0
18157.0,0.310122070532227,0
18167.0,0.33310440067471525,0
18177.0,0.35517595778338495,0
18187.0,0.3765538330716765,0
18197.0,0.3976262577958962,0
18207.0,0.4186993881494421,0
18217.0,0.4397774337513939,0
18227.0,0.46046855235015044,0
18237.0,0.48006150943394754,0
18247.0,0.49771241597764215,0
18257.0,0.512630105108189,0
18267.0,0.5241998524909244,0
18277.0,0.5320646984064976,0
18287.0,0.5362169838105763,0
18297.0,0.5371223675610258,0
18307.0,0.5358258310614962,0
18317.0,0.533964953587855,0
18327.0,0.5319120495262986,0
18337.0,0.5302107388001975,0
18347.0,0.529238908291679,0
18357.0,0.5288910445704545,0
18367.0,0.5284876993047072,0
18377.0,0.5306503988576718,0
18387.0,0.5321297137728866,0
18397.0,0.5312244235765498,0
18407.0,0.5273624298156898,0
18417.0,0.5203507609384994,0
18427.0,0.5103351225827875,0
18437.0,0.4977094206477921,0
18438.0,0.4829833597866508,0
