t_center,rms_emg1,rms_emg2,rms_emg3,rms_emg4,rms_emg5,rms_emg6,rms_emg7,rms_emg8,mean_z_emg1,mean_z_emg2,mean_z_emg3,mean_z_emg4,mean_z_emg5,mean_z_emg6,mean_z_emg7,mean_z_emg8,channel_count,frac_active,global_active
0.1615,0.7338467223891822,1.0971667990393368,1.8851264287523297,6.510246070242009,5.282179456777791,3.6956777948016577,1.1607297344230012,0.8760951352352483,-1.1914987337302763,-1.1053935752777397,-1.0587313123025124,-0.9853235004039422,-1.1817313828954612,-1.1130885009919647,-1.075355221647506,-1.2119935661365249,0,0.0,0
0.2615,0.7722206703709906,1.870306181394958,3.4844321662573448,8.275710597092349,8.742700113678241,5.915964875930533,1.681538362801013,1.5099744533814226,-1.1962850508028076,-0.8968232004189389,-0.6177662741408174,-0.3990555540681292,-0.6947297198549656,-0.8640081188835286,-1.0407408248815357,-1.145164530190387,0,0.0,0
0.36150000000000004,2.298438329183329,1.702701782487318,4.468154584734399,11.231528290480108,13.607625690456578,7.46422197023678,2.021799165303931,1.9379607832111112,-0.9689697009675897,-0.9490591755999026,-0.31524792295221277,0.10322374339832942,-0.127892782603327,-0.6861913838171054,-0.995440713733797,-1.060944902914339,0,0.0,0
0.4615,2.513212684878119,1.5569724843373807,3.4690771617302882,10.18640699483131,11.905788789550636,6.154479137188705,2.0750786988786554,2.153765756310923,-0.896845777871686,-0.9896571097492045,-0.7182637157083063,-0.2874374295949773,-0.5351294785471161,-0.862107079449277,-0.9806005201696075,-1.0523948483242704,0,0.0,0
0.5615,2.7775773686995713,2.696870144116797,1.1711732716043617,6.341110890987602,17.05096775131387,11.66200341805586,4.685683098036647,3.824003386201051,-0.8991779020077101,-0.6773736416378147,-1.2103486708509088,-0.8152104721569704,-0.1584034323467675,-0.5417130942476599,-0.7569004300194797,-0.7988669099047985,0,0.0,0
0.6615,8.455489833317946,6.8322160616331065,5.6763981319271055,9.546708787675113,20.43737194892148,17.902257425467276,7.015997737113055,7.4768285820595395,0.0023840929815292775,0.21414434160282847,-0.4989780016151519,-0.13096554191946747,0.6831702286672691,0.15036890165507252,-0.5319539337511919,-0.25281055271233976,0,0.0,0
0.7615000000000001,9.628205098062644,7.050707133227184,10.781599354889847,20.296696747304352,22.349084680283283,27.93560094598723,20.77253637431991,11.505508872322796,0.25970360489356165,0.27428749178141737,0.843546080871837,1.293455643604486,0.8460650028953833,0.8582030789504678,0.4531247627993601,0.3189047529840533,2,0.25,0
0.8614999999999999,6.698864419849781,5.068114620613383,10.774103860386951,20.022651585372316,21.101113094818004,27.868004612161144,20.89134756128869,9.953808202269837,-0.31682535915111126,-0.16461069525432553,0.9225134064311136,1.1791705056092432,0.5922830504818616,0.8977323017881303,0.49264538517493167,-0.06286667197826193,1,0.125,0
0.9615,8.605802231520151,7.110731314865647,7.255828838798486,10.254448486738934,11.478810361514247,15.128882296455249,11.733956764504985,8.506649748413862,0.0775113472530859,0.40610321941697675,0.26860827712607227,-0.05459542657551837,-0.35423722818405123,-0.13196743252991708,-0.2166212331425087,-0.20944880703625987,0,0.0,0
1.0615,9.490083540791646,8.624887989179433,10.050153940533892,12.452510026183829,11.957917171581906,19.894391197219882,31.341710037716748,12.281573257528297,0.38618938366589345,0.9023611106364406,0.6654594431029736,0.14922927939002809,-0.25668125805308245,0.20018664092137356,1.2507179073059265,0.49882812492682604,0,0.0,0
1.1615,10.590295771184538,9.490344256964262,11.574630513462091,14.509004397987885,14.841351677921555,24.827766531028338,34.79752976772852,14.533089258571561,0.5494946730988466,1.0020905087944256,1.0951457058068808,0.43612919275125234,0.03738845354199065,0.9494029470387353,1.8168442127368072,0.7429589411118362,1,0.125,0
1.2614999999999998,12.278367593036364,10.242618945577178,13.194332266422656,18.76460377248017,21.179818463723628,20.882039156716683,19.226943607729705,16.762954350413636,0.9389524079000214,1.3415260811531637,1.7429063736655315,1.3278354760569908,0.8768991513023395,0.5760443582714833,0.38313672367458323,1.159065402733721,4,0.5,1
1.3615,10.8523460243923,8.456789416008826,11.88422755632781,16.886273722894444,19.10303592237196,16.317743669113188,17.782159198862818,15.38004247223624,0.5659903230717798,0.8638944536348014,1.2956320942570565,0.951824025671633,0.5385366705613507,0.0634108965948922,0.23367519738278886,0.9480794230345689,0,0.0,0
1.4615,11.487717577593747,7.2960338565150575,7.628817960251183,14.107515062771087,17.464049779552607,24.241043283227754,31.40393934149345,14.317354603276863,0.6879996600039441,0.5537549461403797,0.193049197871469,0.3576291639843819,0.11221773774664737,0.5275553044918728,1.4471993722968777,0.7213728105695616,0,0.0,0
1.5615,12.129579959370643,7.122287927377919,6.375015443865604,12.395266121018645,17.190973156802396,27.061441381967196,29.134674584836873,13.303306478251482,1.0199696515369565,0.5665574757242247,-0.2815232283048284,-0.24979986423125125,0.10350999505812285,0.8417375755630172,1.1595565626137803,0.6278210922732778,0,0.0,0
1.6615,10.162610503255285,5.143683605627369,5.073908482559629,6.341487269139753,11.456027346220695,21.62699631005253,24.023606287328438,10.155311908601238,0.5255427689945253,-0.02324759920525627,-0.3762890284488338,-0.855929304773005,-0.282864084101124,0.36667137881170075,0.9564392429043049,0.20019625254097353,0,0.0,0
1.7614999999999998,9.241296415832336,4.667974817542049,7.301407102860319,7.338219409064641,15.131226100231991,18.252132028115728,24.483964650942458,8.2009345853822,0.2193674216733323,-0.24277199756691523,0.07601120565058571,-0.5875919421423323,0.13177909050760217,0.09343868382122916,0.9878758018549493,-0.187165906847619,0,0.0,0
1.8615,11.588722513153398,8.112476402103603,12.786472754586827,11.884524035641427,19.328292117286654,27.612518161137526,26.21237707565585,14.34228254029037,0.6827053118859608,0.5894662525899462,1.2591286303899456,0.05811157807346377,0.6170125100666479,0.9130966930230505,0.9501290216455738,0.5227825420568355,0,0.0,0
1.9615,12.35346915251632,9.962190115227797,13.035926784168963,13.869981593698615,20.06481083670446,27.35392020879221,24.32650809820389,15.829454225835311,0.9611193880646249,1.3967762824164105,1.4491429783556513,0.5101202139880409,0.78520641848096,0.8720027054226464,0.7190250602025502,0.969095195393142,3,0.375,0
2.0615,8.67019666117304,7.480094030893849,7.127772915636775,8.782206678630168,13.66508463629899,14.172475845817337,15.618665747943679,9.31633026768577,0.1758715741103532,0.5869077712967419,0.1279310422727553,-0.5003833029316767,-0.2599511342818359,-0.1268223168911532,0.16793296732159788,-0.030916577764746645,0,0.0,0
2.1615,7.728594468290664,5.092779362790553,6.615364362392611,10.677717584963267,17.55499645343655,21.918533158416615,21.00715879431785,10.778954938955847,-0.0023494760810358704,-0.057058392100685786,0.2132437936281715,-0.12124915102309491,0.11459802298484069,0.38482050445498134,0.7344270028287733,0.1239973370124215,0,0.0,0
2.2615,9.388482978200996,4.7121209629237955,8.142883776597495,15.365322947400124,22.0877771070047,25.488541486703113,35.56867993329711,14.398106688829193,0.4107474659029046,-0.19606782857647687,0.5262004735366872,0.913072512957918,1.0134945749832673,0.834419049616637,2.0686421089458817,0.8353978199403029,1,0.125,0
2.3615,7.802681544784803,6.48791387307614,11.74927690575708,18.252038843534375,24.2693860784956,29.586786450146498,38.4750718617534,13.097442577538029,0.08247354081486188,0.18568085564722042,1.065581561159087,1.139086975780956,1.2697587920795241,1.3562782123027322,2.3318775004291026,0.5756728382864177,4,0.5,1
2.4615,8.811988025005904,8.05644162192304,12.99627943310188,16.163477954106575,21.202719295301844,29.021124071420246,26.167853340844466,11.395870154032957,0.047544340468535104,0.6691255028846216,1.3458116542111478,0.6864768834085625,0.7255741204581645,1.1360530512582983,1.0505436030072515,0.18889300031528009,1,0.125,0
2.5615,11.261835810072995,8.844152990949498,10.718039516268606,15.875605597686226,16.53154245350002,26.566615278832675,19.781436694828376,12.964735159857996,0.5228083630374093,0.7407709813143007,0.9129912521277309,0.7887429642395111,0.17905200196552737,0.8496037243636648,0.5111476464285847,0.5264538352828956,0,0.0,0
2.6615,14.166250732031452,12.980377397060735,13.488126358561697,17.197644287745845,25.19955515709407,35.833895007774196,27.746230813665118,18.9080808278274,1.2241947681054541,1.903535641419555,1.6610540709253112,1.0169786539430778,1.1687682976371214,1.7143609860842601,0.9966153382058245,1.283490904919934,7,0.875,1
2.7615,18.640983944902416,15.561056363856173,15.276116427105352,16.80688982628131,27.034947415115973,42.51245649327928,32.44689597565467,25.7758412855368,2.04229154355401,3.0029273018918654,2.094775307815537,0.8062470672691826,1.4710027855022758,2.4452923763545855,1.3917438604325372,2.3565707503638382,7,0.875,1
2.8615,16.457800320706983,12.078664870467293,12.886227274561795,16.009481075578968,22.943413308134087,42.40278292099585,29.01458029749902,22.530439570721658,1.3467052709352374,1.7273696521168416,1.4925257420708686,0.5969585161883483,0.9071609533675296,2.2692288053738485,1.2971324174845014,1.813434442203926,5,0.625,1
2.9615,12.481681635213317,7.920886926637267,9.352637178780519,10.531070819465523,19.347776725850714,40.1135097072845,31.457234045625217,21.121119910067144,0.8786469625958832,0.7275139575259607,0.6974168549364899,-0.1408375283382796,0.415715011468356,1.704413701582603,1.7766500127308302,1.6838051948628925,4,0.5,1
3.0615,13.470976698659562,11.901731594223993,7.106028276639333,6.527199887958899,14.053721000375498,32.40954714085653,31.334344343396353,20.083170399471435,1.2183223788065503,1.681852679238701,0.2539290103714125,-0.7843583113944311,-0.14501738227238425,1.1788475556715015,1.7879150975594351,1.5220250524633567,4,0.5,1
3.1615,10.870053537993488,13.062351152690061,6.9365134411921865,4.064087541143576,10.144277127182542,27.26476633844082,26.846988017702426,9.94380968766579,0.6309487858959897,1.9111554919110345,0.19616019756286363,-1.19052010444247,-0.5250896824719993,1.017539638258065,1.2689773015413217,0.07174735625643654,1,0.125,0
3.2615,8.375289453110534,8.230561722588863,5.243055750950388,10.077053734805967,9.456701900565156,26.834609051863275,24.26817369204967,6.578621118879508,0.18209996097045472,0.4081492835024711,-0.29266573700568804,-0.4809529512293299,-0.5858717151452832,0.8334280766009766,1.0222944568640484,-0.45832154030612393,0,0.0,0
3.3615,9.591605504346242,8.482196988997638,8.828023563586715,13.945612920945209,14.594842257018895,31.627596525950402,20.790187654032746,9.280393223993487,0.35695023740628334,0.5522331545240761,0.34711759391152547,0.3209965950741772,-0.2469908033562011,1.177478698282101,0.7493490661647588,-0.12179309801447724,1,0.125,0
3.4615,11.121888211981448,10.13731010445431,11.068496129253656,10.829542908330648,15.047807391026652,33.74043093049032,29.75513578706981,15.892319170370708,0.6902303881487429,1.3171059432715078,1.1052974162289473,-0.25054995724186946,-0.28655986958441276,1.370325020857883,1.3333896199257467,0.9676686852584395,2,0.25,0
3.5615,17.018506712423754,15.099324215373876,13.070939402002752,14.007524017223783,21.38828542447279,31.104568919731456,32.95678884375736,19.565905289237556,1.5648017442699271,2.201820129252646,1.4186058605013647,0.037274893631903776,0.10259411119887518,1.0184115951670532,1.6927495245989181,1.5761931656580228,6,0.75,1
3.6615,18.068455130445123,15.03886847181742,12.372588978614006,15.289882323252538,24.990738066454036,30.313340589010842,29.274822637564714,18.744896013597998,1.8407461380104937,2.128759830464176,1.1607054500794847,0.2697595336037364,0.9487667535336739,1.191515853819624,1.500676226648274,1.3289938273381634,5,0.625,1
3.7615,14.627647753310606,11.139099071172767,10.670527761929492,8.899780596758287,15.69748183801024,23.20467666601516,40.492895491883864,24.430237860196318,1.370541501847092,1.5443310466468558,1.0390992253958724,-0.6363384462344597,0.043315724545586826,0.7709289594305342,2.356159253796925,1.9856263122795212,4,0.5,1
3.8615,12.746241618565321,18.54811152031622,13.770679650609061,10.521594085280102,14.83464246137219,29.88579960377841,36.98063646550593,21.708517418704304,0.8909938835428932,3.3788584565446285,1.8310926630171471,-0.3467523356840239,-0.10400156734896171,1.1986710429878606,1.758013898291105,1.281867392860848,6,0.75,1
3.9615,19.056681981686392,22.450104568391666,14.610222747764139,18.01348456840544,22.686052893283122,28.67705285535671,19.925356885894658,13.986334440667362,1.4934231171954802,4.048419653246538,1.8050458479846652,0.6866783694348975,0.864351537164743,0.9912617139229077,0.5051665766949497,0.3585961629839007,5,0.625,1
4.0615,19.27442591784726,18.219248497255165,12.807490582966228,18.396968616251673,20.82513710402018,19.27573695260628,18.22598924089609,17.4719953184076,1.5764189899571601,3.0225061407737774,1.2325431084268959,0.8799469260696471,0.6274915287682358,0.3537449474902205,0.32704887086650325,1.0150681452494266,4,0.5,1
4.1615,19.063512037918343,13.437138567523526,11.100985361383005,12.589661943847505,19.69305021308653,36.71859109990339,21.560848959005163,24.147097940168162,1.7364528059170654,2.592614065019926,1.110786014941083,0.24887278485019557,0.5981984089126793,1.7738663604790983,0.6219324112409566,1.9018737565753485,4,0.5,1
4.2615,18.154941991870597,10.98866300382938,8.323009323952897,8.442787874578077,17.542260798410055,36.506571955123164,18.76527619847695,21.484547473025913,1.4519034389106347,1.602429298582164,0.36686110844263964,-0.6028435830760258,0.022331154681137916,1.724030452078865,0.12247674528354406,1.0643610995026251,4,0.5,1
4.3614999999999995,9.799851242895455,8.370323686805,7.235346980852318,9.98658012843915,16.90489753190164,32.859618437744246,35.27998397368259,15.203799686612298,0.39601944478515094,0.8870566530164143,0.12182863780070327,-0.3747371047022014,0.008954626740532679,1.3656854443241904,1.3931609956126163,0.3865963275856907,2,0.25,0
4.4615,9.81707255451361,7.97822283257805,9.824576637852529,11.057898751524574,17.658950701326518,31.72959266751402,40.105532059409526,17.242794107180554,0.3385113072098446,0.6715337980558076,0.9404192257321473,-0.0035969153280353094,0.28544062796530256,1.1049075386451557,2.422842495034258,0.9568482870919176,3,0.375,0
4.5615,9.26056039175414,7.644175954566667,13.2672040186376,8.183597529070148,8.713499504049793,16.42122621529014,25.985604116078797,14.105474213667678,0.24744071363251086,0.48596730225259566,1.5364708812117924,-0.4274936747869807,-0.6696618286875163,0.07150036475994381,1.096615434518586,0.6280253025043795,1,0.125,0
4.6615,14.352896480296659,12.06360381391676,13.217973700726516,8.810294070632324,21.74175944963857,45.887755250694084,34.44643268745302,22.16299745075808,1.0959210030724242,1.6702392845479002,1.4239147986017904,-0.41529448240341726,0.5114888578478308,2.089246411427117,1.9581520833580108,1.7454230262079073,6,0.75,1
4.7615,13.100422214085338,13.458305381770913,10.224548720607622,9.863874528012248,23.841717139368075,46.72818271566527,34.132659073308915,21.025286685711155,0.7877709790268211,2.211920589041635,0.9292059408594526,-0.24636172576486004,0.9715973312372204,2.137601859291229,1.6813384365350883,1.5024845534887838,6,0.75,1
4.8614999999999995,8.984794663878215,10.658957879105673,12.677293076584258,16.824877921854338,24.10955398418492,37.3910119178611,40.5344627394593,17.752456105281578,0.2829040842186336,1.386795399228089,1.4419522897898438,0.8009048592802747,1.001838838896849,1.5735659414667387,2.013912863985142,1.143416646200552,5,0.625,1
4.9615,12.48104427167534,10.261199936927492,14.313229779981183,19.60222103303651,27.77927210146641,43.66787790880438,44.33918355113517,18.738304277580617,0.8470837097201899,1.1909883991122672,1.723796965404202,1.301329502043577,1.5648867750985158,2.347532180304734,2.6238107617839153,1.3008522405250431,8,1.0,1
5.0615,13.140002048995775,10.973896712390948,11.59974572818702,14.011083508823754,19.280050132584982,28.360798712460024,29.186145548180765,14.245605395053898,0.965994006686594,1.4737650760186056,1.0775725195218966,0.3352937926444571,0.4890713354772411,0.7954129728725796,1.2535064110474246,0.673253019205381,2,0.25,0
5.1615,11.832276855056874,9.100012595525886,9.49302204793146,9.261863063993351,11.955839033832513,11.036339142946838,23.263859008536453,15.116811950395789,0.8972804959811406,0.9199447432131668,0.6212177720539743,-0.2666626318225218,-0.31443032400908555,-0.3792725707552516,0.8703442595436067,0.8157812140451753,0,0.0,0
5.2615,9.670304875318775,6.254370546241801,8.767491938666067,7.892911119074522,10.398201352304588,24.109239266737895,26.9858824812008,15.075671942303089,0.47555314751304034,0.034425819376314955,0.5197601057023916,-0.47732419629325584,-0.6548761844037171,0.5333466859052155,1.3490870421923407,0.9276779299374402,0,0.0,0
5.3614999999999995,8.79322279405843,5.86048197506664,7.937389609549935,6.386301062230047,6.450487374663116,25.30121648056336,22.211680911687058,11.23554128844739,0.24152091627654954,0.0751348222279827,0.4922716772010952,-0.7151302440276324,-1.001006382347195,0.7161582721748019,0.8423769448958222,0.35760033202912944,0,0.0,0
5.4615,13.414688635639353,12.639637945064784,12.714439942416503,15.749304194007072,25.086102308749542,42.233172223170776,36.78832493039699,19.3858397618654,0.9871529349218311,1.5595445408017148,1.3129778041620512,0.26167862530984826,0.5361403301955575,1.6447182580971338,1.6151468082663114,1.175525481588248,6,0.75,1
5.5615,15.986776917527212,16.033413179094136,13.048285379488952,19.000256191462487,29.30406763953074,52.14805432957987,45.55433829083467,23.970961598475625,1.388784572204578,2.649166229598705,1.41903374187578,1.0257074272881594,1.5064103373646225,3.1093920208865984,2.9471402445561625,2.1507200438017353,8,1.0,1
5.6615,16.152205784838316,13.4077891241398,9.78547967198896,15.667236957028896,18.97715022565093,36.44778166511457,37.63940254690573,23.03709698511016,1.5263430878681794,2.1170124732477986,0.8492348204054236,0.5785962551553523,0.47563841756684816,1.81363192173158,2.205948473918076,2.0206040428233236,5,0.625,1
5.7615,21.06115338823192,13.79046884988829,11.176746953845036,13.081054875932821,18.935862794580963,35.18802337015194,46.33488600191945,28.16827076031084,2.4620141844423737,2.1089183064914048,1.1271640326677324,0.22298661081864263,0.5429143872795497,1.6637736883364114,2.7932465601507848,2.783367025626209,5,0.625,1
5.8614999999999995,18.474220224694477,12.071688965308663,9.878866641179126,9.096256274183427,18.499070945262932,38.32180969640033,42.56022818788902,23.198331163139947,1.6644771271875418,1.2359811628447017,0.7052676488982427,-0.3379770337857442,0.5622829755517949,2.024300369446506,2.3954531613633345,1.6862210034787832,5,0.625,1
5.9615,11.16796030531232,7.372792039475709,15.217373086775416,14.452555360671969,19.198047775825287,27.394237027502065,26.168886985273645,14.665788040902402,0.63345040561469,0.37626496725841785,1.6528662907752014,0.2721359618955673,0.5861450438311818,1.0559424342554775,1.126864723324487,0.6329287691346915,1,0.125,0
6.0615,12.6910587213726,10.65795390347561,16.08597890080809,15.44386695833258,22.25230422737343,32.78649924621038,35.34986259718943,19.58978351705205,1.01617656837041,1.5007119938889306,2.073920734808919,0.5477204243431042,0.9196843075057117,1.3433799401603068,1.8336698632510184,1.429420716165485,6,0.75,1
6.1615,11.151078321320595,12.411920506588647,8.448252166295994,8.490578480816026,15.22623685321921,33.003693833555786,36.08942366004576,19.798507098128763,0.8079599794278457,1.588778631265563,0.5375875243790792,-0.5346557302686293,-0.2610448900592187,1.3317260947207457,1.9448529920470505,1.5574179071489553,4,0.5,1
6.2615,10.757625108102078,14.230944242835644,10.628916427289852,9.71068281810855,7.729602795326062,15.84208699828938,32.460939662772724,14.256478561604181,0.6398229791826248,1.9800354630230428,0.9263926384704166,-0.3663400234618575,-0.8418597431368553,-0.21035259114893698,1.5895308113773883,0.5014315985732555,2,0.25,0
6.3614999999999995,9.83263123021766,12.77847310251777,14.310409610487314,11.530418922784087,8.834474696127176,21.174719628926514,37.06127485199733,10.718814188329443,0.4206832879042549,1.9255220708772285,1.7262363999614971,0.0640881414411263,-0.6103858143000856,0.032687291819304534,1.9815773498101346,0.05627054162500547,3,0.375,0
6.4615,13.449741552227795,11.647830057556977,13.543904192104831,12.649448007309326,13.70922648190106,27.91243825992312,29.698061637209996,13.060933033800403,0.9702861117523177,1.6141464820815088,1.4936683381542004,0.21019764071681174,-0.29042132533926507,0.9193539316291195,1.2439194095796131,0.5381775180271429,3,0.375,0
6.5615,14.328510416976336,11.670129340569721,11.772091757956566,14.610626659859692,20.93319003712488,31.027255958365128,28.270764095112042,18.603471243575033,1.230786586942713,1.6748920371416904,1.3300801806972538,0.5819777152662102,0.7517183538575507,1.2707755047527147,1.2244826148355974,1.3509593495081587,4,0.5,1
6.6615,9.58471586247153,8.41527775279435,9.83932792923947,11.552501033555256,19.437442354765707,31.981993797642502,38.09729714051875,20.36030071280406,0.38803063935421284,0.9476641669944514,0.8438107294537696,-0.04095937145663646,0.6776372460397774,1.422062723129263,2.390708883121866,1.7558509288764574,3,0.375,0
6.7615,7.815072858104551,8.737628306467911,11.265577773570248,13.392275794277886,19.893831969028703,29.10239288415862,39.122116937130116,19.431888629948048,-0.011117550985236879,0.6948750446717795,1.1900480385176582,0.24429683889772114,0.6246914823191506,1.2484158720813656,2.5597098387319077,1.6326858117748608,2,0.25,0
6.8614999999999995,11.476795860917072,9.009556128392903,10.914456222121045,13.541466941925895,19.53834934865449,25.738320629880075,29.01543129892419,18.94616213512357,0.6507729403896009,0.7474727811888197,1.0782903323498751,0.3040797691493471,0.4494429454760012,0.8216323355967267,1.2375349948266134,1.4928978403128192,1,0.125,0
6.9615,11.775205907072507,6.197788921827317,7.483425459931197,11.728541399598733,20.69114040363928,23.34271526481233,13.818628993980807,13.929302177950209,0.6941846167210367,0.15980240549149333,0.31423201321543615,0.026024762809803707,0.662140553836229,0.6211923898475067,-0.08740884406253446,0.5649178186742321,0,0.0,0
7.0615,8.379970900155229,4.960789447159927,7.038651708080163,11.180546675336338,20.823073790446667,29.507262110007904,30.279072878744394,12.541384381155673,0.01634240991226785,-0.2033732002205415,0.12692939668771058,-0.12995309016244014,0.7995997651471657,1.2830253063519539,1.2752620199960238,0.3961742620070213,1,0.125,0
7.1615,8.35688854622102,5.880609072455032,7.558927375589044,9.74989447247656,13.399927754745415,28.053725767341195,39.16265351294701,12.523827541521698,0.07774285491999149,0.01003552864954613,0.23356774669158656,-0.2859352432233581,-0.028306651112783,1.1036051093709747,2.487235369582186,0.5475161937395502,1,0.125,0
7.2615,7.356437990948608,5.279645232344443,7.58649979413383,10.84489078813463,13.72566312593564,19.680353404595767,29.531399900985264,9.632596370471877,-0.09673088083456731,-0.13167432739997756,0.28106750660927005,-0.022142802148696145,-0.09191107761418489,0.314638409021931,1.2477865827872388,0.041363356549434745,0,0.0,0
7.3614999999999995,4.543434769039284,3.4353617031038857,4.08692848592176,6.272820620403133,10.365787770674938,13.211634775273778,13.58031689156355,5.611213420380021,-0.5830493871968485,-0.5150425900727044,-0.5187985707926026,-0.8676532969376484,-0.7011944358684409,-0.3326972301271314,-0.15992114018648404,-0.6301096913126097,0,0.0,0
7.4615,3.9789591973323652,2.966458823885425,3.2015749659140917,2.695684577249733,4.005014345993608,7.790316290910069,7.007010590375872,3.777250345914717,-0.6046814226515401,-0.6165596771816069,-0.6851274490110917,-1.3160233783725652,-1.2695994116071883,-0.672824723235061,-0.5914493599170246,-0.8307854158219053,0,0.0,0
7.5615,3.5924634172540575,2.3327036899712055,2.6655473507342053,3.3481167873736077,4.172475635512372,6.749279273336375,4.406701949983634,3.3193089220686405,-0.7151443639786751,-0.8075768015927874,-0.8747464725946164,-1.2142853997230618,-1.237974172344359,-0.7738265536766795,-0.7890156674188574,-0.8916551799704545,0,0.0,0
7.6615,1.5276001828187293,1.1355177455231518,1.299351447569121,3.14286464837785,4.238858557927646,4.144158452258311,2.1860476261543527,1.6489811510431236,-1.0540380828723976,-1.0735744544651382,-1.1928432773029558,-1.2647929995575482,-1.2015056210082706,-0.9984399508197582,-0.9866980107632065,-1.084878802469735,0,0.0,0
7.7615,1.733631892650136,1.0559079279847376,0.9489563084999938,1.3959057482649329,4.086125714600834,3.845781657347148,2.40622524777273,1.9111213165845349,-1.027437109311057,-1.0973564392137762,-1.2428105453070222,-1.5260590569440284,-1.2131090011041565,-1.0169177173668167,-0.9730415274015926,-1.0580391464331675,0,0.0,0
7.8614999999999995,1.6428587222772928,0.7616878844635762,0.8085393163433621,1.1667608910871434,3.523537662180842,4.0358738098013,2.3314268586797313,1.637844431838291,-1.054339171553112,-1.194498796544935,-1.2782281284799637,-1.5665037489113407,-1.2821867481398752,-0.99992217698201,-0.9874953170518629,-1.1363480415417992,0,0.0,0
7.9615,1.0661591736154468,0.7525890345431765,1.0571045682508653,1.1904573587777445,2.720741354012277,2.6667769927959135,1.284828897309858,1.2961150263235512,-1.13340878924327,-1.2246936809423294,-1.2467869811929981,-1.5766872031343027,-1.4177022543061657,-1.1427803001716286,-1.062826866289938,-1.1687605389461766,0,0.0,0
8.061499999999999,1.0700792693052386,0.9777366026695391,1.2384750211984177,2.221881484657457,5.051013821434289,3.747327861975669,1.902179759615155,1.6766663939609074,-1.1278120353682346,-1.1405340888091642,-1.1857947979615642,-1.417760685093151,-1.1780994227915431,-1.0512150141832892,-1.0154948958871366,-1.0999294213765383,0,0.0,0
8.1615,0.9171816032548731,0.73750592986928,1.0207010944488888,3.239098023506496,6.702868978098637,4.250080056002236,1.7084660486308438,1.2393816242044893,-1.1541597696945065,-1.1942295960582323,-1.2320056318042638,-1.232827898248133,-0.8779937068783448,-0.9667870404220815,-1.0469707316091654,-1.1794957710050433,0,0.0,0
8.261500000000002,0.7696918519561065,0.6771494127166205,1.2484258714468475,4.728725257014129,9.998708124484693,5.119619529113191,1.508281147956854,0.902304316783456,-1.1886216960904477,-1.2174226226136537,-1.1765559490863302,-1.0084736509437453,-0.5829496141658308,-0.9248010890047524,-1.0631438820519543,-1.21426364078158,0,0.0,0
8.3615,0.4483011769964385,1.0703811811017696,1.2415421884157654,5.034035126779376,11.873548901630299,5.614549793187518,1.8788091327706422,1.1878587413846489,-1.24514875635839,-1.1047115985690745,-1.1869148482102971,-0.9803592862153684,-0.3631673433218427,-0.8717209919821869,-1.0092234991914155,-1.1730655345811851,0,0.0,0
8.461500000000001,0.46981460095751665,0.9641512849774018,0.8097317947020305,3.960114267246733,9.120427723144182,5.234188215445586,1.5731541884860307,1.149992174928089,-1.239908137048268,-1.1427831798370127,-1.2881431365319171,-1.1503368264909823,-0.6980921051411694,-0.886866166760253,-1.0317681994892878,-1.1696167377157984,0,0.0,0
8.561499999999999,0.5441861718346246,0.883549504820129,0.9282949265869967,2.651305668861685,7.278719673715153,5.859583237942239,1.403987580918128,0.9985243553352011,-1.227760482323322,-1.1544779916351766,-1.254435181490051,-1.3566857205678788,-0.8652034899861537,-0.8388883903711103,-1.0488138704401448,-1.1923527247837857,0,0.0,0
8.6615,1.4207919202443298,1.1998952228597048,1.3775463468434546,1.7057055774532055,9.67388065595785,5.457856634014753,1.5102850429523191,1.223013675040531,-1.124370691279694,-1.0639862690064414,-1.1453973828694044,-1.4990644482716764,-0.6141254496693355,-0.9256704542219029,-1.0433617451503348,-1.1611509537738771,0,0.0,0
8.761500000000002,1.5325409462904067,1.1087559995118534,1.366063565339284,3.199355810615109,8.748275311010609,4.270768194775053,1.540417408234511,1.2901181480121133,-1.0884237560426113,-1.0890349815033185,-1.1627292858836964,-1.2628379061930417,-0.7616219178645254,-1.0391634795269407,-1.040476686615634,-1.1435125102533426,0,0.0,0
8.8615,0.8956629657571149,0.9944970159733564,1.514809977890397,4.213265841751511,9.202933733437483,5.528510403670441,1.6694359969683612,1.8705749532464468,-1.1741477720974831,-1.1130406589944122,-1.1085843250293033,-1.0983696329147865,-0.817173323018758,-0.9083365631578663,-1.0160238589703008,-1.0542781375410712,0,0.0,0
8.961500000000001,0.7028507025316897,0.9012229094623595,1.535181920308846,3.5789628929196264,9.54476644355109,5.904595972749936,1.9076416060222443,1.9834575622432078,-1.2009201720931195,-1.1493591313899634,-1.085124509040998,-1.2319616244293952,-0.8099690587171428,-0.8452370799748848,-0.9972645897528122,-1.0337985201895805,0,0.0,0
9.061499999999999,0.5944962618066627,0.5739946471958668,0.940903418106484,2.398120050021389,7.101217720073639,4.014381566831428,1.5000740684013012,1.257887022611662,-1.2139543659839367,-1.2335018623285148,-1.2533683601161352,-1.3612772335606658,-0.9873375118796736,-1.055241720583312,-1.0555607068832422,-1.1544492739934382,0,0.0,0
9.1615,0.8975481452099403,1.169829165132257,0.8992970289319128,3.4799019066602535,12.48467287985677,4.875790000534369,1.0495400849775947,1.0992611095599538,-1.1629571365389884,-1.1201343329074314,-1.2700248758970647,-1.168075569269574,-0.24789937679164936,-0.9924594554229715,-1.0905169982840643,-1.1757537241716232,0,0.0,0
9.261500000000002,0.9511307043754496,1.2212890405477739,0.9139440659109704,3.2842152492379797,11.705810896614125,4.533831479222886,1.3869820893242901,0.9814790538517519,-1.1464735540670492,-1.080869489448501,-1.2663770476078786,-1.2216315055108482,-0.3907933728416524,-0.9991617883498316,-1.0564960955503029,-1.2089380062352824,0,0.0,0
9.3615,0.7451515632520977,0.5405066552646174,0.7512252125441695,1.9265569414244688,7.751126592826618,4.470120454233156,1.2727792118270533,0.6729601858190903,-1.1831222339332876,-1.234865080083293,-1.2964415665897315,-1.42902885434798,-0.7913463147932255,-0.9927417156020424,-1.0686148622390375,-1.241680405726859,0,0.0,0
9.461500000000001,0.9001835478275876,0.836504434727616,1.3215203347607263,3.3030924643122566,10.105549846202292,7.2316832184690005,1.4389378752717281,0.6565423394471668,-1.1631513238008244,-1.1897719850957662,-1.178662374153809,-1.2376173202259215,-0.5119940762136264,-0.7962858871867218,-1.0526849074782605,-1.2338940844496102,0,0.0,0
9.561499999999999,0.8992469887990938,0.9633699996573821,1.6742162393444984,3.9436544801009,11.56775084434737,7.774744259308944,1.5410452146943527,0.6155309084916967,-1.1595327874446277,-1.1450613729972234,-1.080468150585615,-1.1395723336612886,-0.3953620339183073,-0.7507654948840229,-1.0343989395088586,-1.2448609452149377,0,0.0,0
9.6615,1.046246551006752,1.016661294221118,1.2793101229018804,2.911458493213522,11.729473639467098,6.983482080211896,1.1417925260142547,0.6629289576584713,-1.1379530654118002,-1.1270737199118785,-1.188931652714317,-1.3375680887877492,-0.3042996186134742,-0.737103330610325,-1.0728590578515589,-1.2453203546551261,0,0.0,0
9.761500000000002,0.9780386278382869,1.0659718677977765,0.5875599449758439,1.4398330598950044,7.909357454616514,5.120723564915744,0.8462976878210909,0.8959655094870426,-1.1626947388727826,-1.1032302538846075,-1.3217061805434107,-1.5252235417178914,-0.8601627522087378,-0.9409283811357578,-1.1033557578002158,-1.2084412806793792,0,0.0,0
9.8615,0.8220511379427968,1.5727190612310185,0.9247056369806781,1.238605786034472,4.215180461008365,2.10061955891067,0.8458552130818596,1.1221469010237073,-1.1803649101996727,-0.9796413582924669,-1.252106520278337,-1.539993655647625,-1.2294443929711703,-1.1657811560634668,-1.1087067579663172,-1.164779086185097,0,0.0,0
9.961500000000001,0.8729000345912654,1.5645719997146628,1.2827453589064008,0.971423394625607,3.748339100983498,1.8041250734767567,0.7429019934878551,0.9704234979333644,-1.1726574261418743,-0.977791555063006,-1.150834293583647,-1.6213827906501366,-1.3030956295707485,-1.187450396316163,-1.1236505990527417,-1.1903047954174624,0,0.0,0
10.061499999999999,0.5789387778320634,0.8317850548990867,1.2438991947210924,1.641152036849226,4.951343365051876,3.036286325792508,0.3984089401649007,0.5918349622124152,-1.2282505267785897,-1.1603177181688662,-1.1565643531258367,-1.5685766062260798,-1.2277246730964064,-1.0999470475334119,-1.1459595001682743,-1.2542243323326616,0,0.0,0
10.1615,0.5760212548899896,1.1405704814184456,1.2176825438114347,2.0843859758845125,7.923030838848003,4.841930389338408,0.8006439306709505,0.4224992253602739,-1.218964875563215,-1.0984812972427942,-1.1905617381523832,-1.4530276978287315,-0.8473580120322396,-0.9216211447824031,-1.1113910783194436,-1.2801175049890463,0,0.0,0
10.261500000000002,0.7364029980265369,1.113488968831735,1.1968133472929205,1.6929117722015257,6.991019342239419,4.49064637115826,0.9511812743383977,0.5502245738119074,-1.183049485579683,-1.1014243393433447,-1.2129893232206554,-1.5033460279966169,-0.9697688927252481,-0.9770421858899319,-1.0920951756967814,-1.2591177786385643,0,0.0,0
10.3615,0.9830014504963681,0.5970792138760735,0.8498321120549912,1.4668525130637844,3.5529421045344085,2.762491731248373,0.9716627433248618,0.5182042257893275,-1.146013276557176,-1.2229724553796901,-1.275144598454592,-1.5175135135566507,-1.30402230021482,-1.1377233687475243,-1.0919395991572967,-1.2663771191552726,0,0.0,0
10.461500000000001,1.1932195599597142,0.8097267090689119,0.5360612057616481,1.715051941066978,4.655669926116552,2.6766745109721324,1.131374250705062,0.43564698489566456,-1.112787796366444,-1.1756603468878668,-1.3353467252990012,-1.4794933226438192,-1.1965144667273075,-1.1340128202052262,-1.0794425113902955,-1.2742581511844848,0,0.0,0
10.561499999999999,1.135308706012044,0.834575538628256,1.1705324701474356,1.828051550702755,5.982792687244293,3.15433673730437,0.9136517703649036,0.7970463573342773,-1.1191907041949307,-1.1617224116554445,-1.2064013163760465,-1.4816022007563072,-1.0545163055436384,-1.0708584818496065,-1.106653310797297,-1.2209955415279965,0,0.0,0
10.6615,0.931148143590134,0.6703996786016992,1.1603597365525116,1.3906072777603042,5.002648110833782,2.683000972839568,0.7898311803469006,1.0528908905657635,-1.1603227516477879,-1.204026030323827,-1.2169405150925618,-1.549672414008364,-1.1885427823303085,-1.1272920700682882,-1.1131809664257286,-1.174670142785412,0,0.0,0
10.761500000000002,0.6590046342643665,0.8858510951818068,1.1564097759084158,0.9652939633387035,3.0055826316455265,1.4193025365312055,0.9371983639002632,1.0624035639608236,-1.2192575212781633,-1.150490342362734,-1.239428645589788,-1.5927976841284497,-1.379379538807692,-1.2369360598730486,-1.0939565404152602,-1.1767635242844916,0,0.0,0
10.8615,0.604695204314011,0.7502291774688321,1.1459106888604305,1.3437156983213936,2.513289764628826,2.7412800232879406,1.4859352691519385,1.2427001748144693,-1.2225009378187475,-1.1943743601589336,-1.2432530273927118,-1.554019147535936,-1.43968371230732,-1.1446034934674858,-1.0464324799761315,-1.16143872575264,0,0.0,0
10.961500000000001,1.3441565839977216,1.0606366739044097,1.107884510849324,1.8293508340354856,4.614625862053095,3.7901527626002802,2.1711504246571725,1.558678932598229,-1.1039972648514302,-1.135361717256964,-1.2459159079537765,-1.4651774567691545,-1.225521337991311,-1.0466444805771566,-0.9781736808343563,-1.1070561539180885,0,0.0,0
11.061499999999999,1.6740699165843242,1.5097806751944103,1.814118335827941,1.8111189184261398,4.906810338556964,3.1864062041752073,2.670129557311692,1.6567916492944985,-1.0335808713906478,-0.9673009748983994,-1.0471454541216982,-1.4593610129653098,-1.169102232759946,-1.1156070602672683,-0.9206816701803955,-1.091307055814795,0,0.0,0
11.1615,2.0169404275579597,1.3562133900098623,1.757525005598748,1.5125984071621716,3.2068964826823456,3.010874702542849,3.369147326505496,1.8895028568246872,-0.9444083390039388,-1.0119993187511425,-1.070789623614167,-1.5332574406693267,-1.37231038098663,-1.0911455657518545,-0.8375563766711401,-1.0607647470923782,0,0.0,0
11.261500000000002,2.6248996622277576,1.9702337244970853,2.2049497781816125,3.082690264336474,7.098370659600837,6.35298153946556,5.54348865386586,2.3533840387661584,-0.8087572181879784,-0.8751983516924566,-0.9947451167495529,-1.3628147236884405,-1.030759015140482,-0.7912372527000632,-0.6184723883437262,-0.9757631263812213,0,0.0,0
11.3615,3.7543586098747976,3.0670830910804603,3.3080924883751033,4.620204624446984,9.946832441039582,10.989259232737655,9.44518279167012,3.979331892781197,-0.6396254227174316,-0.5635328828268642,-0.6399278730469562,-1.0110695809621777,-0.5442116696686558,-0.34556581404568343,-0.30211671603675805,-0.7601337519341403,0,0.0,0
11.461500000000001,7.76098980054465,7.1549429515843945,6.928024505515681,6.832595057485498,11.998470894569312,15.854936459076068,16.23143887776885,9.453395475789264,-0.1994027087246256,-0.006859037067616067,-0.02612054357965821,-0.6806644970287817,-0.31370339905092093,-0.11452608759479739,0.14059036261559513,-0.296753951625496,0,0.0,0
11.561499999999999,15.733002397005569,15.285239782396852,18.133852509863946,14.968108571156389,22.273297206930664,24.91289774406721,27.9068948067293,20.824331634179046,1.1413940281529162,2.087320127784215,2.3092110276895528,0.48041668076513383,0.7494737364532669,0.33665113197798585,1.0863224859414828,1.3211260658086263,4,0.5,1
11.6615,15.915310171257115,16.842056412292205,22.66905025137214,19.63016595908876,24.201146910104647,33.485760411290286,30.85588005870102,22.971967727297752,1.2345583274786118,2.9915377824666596,3.8712135998172204,1.4639530164634353,1.133894341885228,1.2341046709839578,1.2747697615342155,1.7832476388604743,7,0.875,1
11.761500000000002,11.52818612236798,11.574019092494531,17.224999857163205,16.07533186702264,15.773638557929186,33.773292311147856,42.304164133724576,21.028030690994257,0.6049336258898211,1.4623648614775207,2.333765843409081,0.789616964407486,-0.035898597753423675,1.5519815578731078,2.4213754520798054,1.569007997696332,5,0.625,1
11.8615,15.971306121999366,11.561921678603383,14.55426760221419,20.197976927576516,21.179114417018884,35.268996052372316,47.181919575359316,28.28673822181061,1.5826750458799441,1.4555528635418329,1.7736439269665834,1.1677525045780033,0.4274806953218788,1.8272838947898697,3.329412961834711,2.903524943729644,7,0.875,1
11.961500000000001,14.702600610597038,10.75525849228206,16.107481531987837,21.294247955673544,26.57786177097115,34.67143763562938,33.776213312583835,24.493036064867795,1.2607356639984477,1.3062062469943603,2.3469657413786305,1.517167420916487,1.478479761148887,1.810174977845705,1.7738291080884137,1.8485135696794226,8,1.0,1
12.061499999999999,11.987129049599396,9.00339744473183,16.38845254454819,17.66199907862693,28.533872143525382,40.60733717858572,47.28959207895998,20.09114845260523,0.7477034424961572,0.7767286217442876,2.131693583999335,0.9768837687280797,1.6939561927224,2.0255996116503314,2.682461003541316,1.2906287713614282,6,0.75,1
12.1615,14.462480263270184,8.804183451159796,13.759386168673863,16.00313256283566,25.032714138675946,38.94454088235152,46.506546570039454,24.148455995993647,1.2937191021609145,0.6173981629107312,1.172542601413056,0.408833289019213,0.9510605507608441,1.670406152572038,2.6537620581696193,2.2783374688030116,6,0.75,1
12.261500000000002,12.496356010252956,11.770806000171339,12.61859280384092,11.711818809879926,19.070007088626312,28.63067265228957,21.82455218536949,18.707618087698965,0.9769715862915566,1.5029118478881602,1.367622568140204,0.004994206121379425,0.4474650128670713,1.1273149159570313,0.80631185532772,1.424852815338186,3,0.375,0
12.3615,13.778284756197463,14.57862291363849,11.887147201390002,10.482044936073853,17.412192673385693,42.41571307334212,34.465047391049644,17.157861050669872,1.1071749837944957,2.5893941184831157,1.244394323717942,-0.14539465060860818,0.3673372484052291,2.2289232892324353,1.7430792164319016,1.2007216726479875,5,0.625,1
12.461500000000001,12.614965419037203,10.715586067380068,5.875508554826892,6.7593712418286875,13.387501274755808,48.25709239606212,51.521215803546504,16.66419828857217,0.6503128897366359,1.135564028948691,-0.07883273188845615,-0.7088245679750326,-0.16273020066001265,2.6341754505430806,3.508939697440099,1.0745958734979844,5,0.625,1
12.561499999999999,8.770827413717958,8.041657362709282,7.442436361452301,8.894861990084994,19.33557753962761,40.59529683107943,43.52872779532586,11.280039684496142,0.10729033935375408,0.535056889761165,0.1967508618810932,-0.319514503049801,0.5157287139374782,1.9609944384601945,2.4879324915372574,0.31576195716256494,2,0.25,0
12.6615,9.619915664270696,9.047826963979494,10.39733792235385,11.438742207998843,18.810497323104574,27.90880397603955,21.021148482005078,11.591237676903187,0.3286943662597946,1.0286456290136419,0.9491018596624866,0.1338869547293541,0.46475431848761084,0.8850959751199448,0.6916699431932571,0.3162197429179259,0,0.0,0
12.761500000000002,9.859989218223914,8.128278757018016,9.87158771007562,9.800604478646713,11.065011905121837,19.043021043790542,17.559780035814953,13.8987310637614,0.41469844731409267,0.8273726929059735,0.8478031645217827,-0.2576965946499292,-0.364920719453258,0.3302686509070049,0.282485390322594,0.7469975215798192,0,0.0,0
12.8615,9.699344209311136,6.413644982379454,7.774780029396995,9.980298561789617,16.052139784616504,28.755920454764496,25.759174964870002,16.552645849567348,0.442034088297441,0.3179170905228218,0.27913097915545054,-0.21697945986359302,0.11403240151732849,1.075453655876543,0.9792897566836365,1.2296332079825771,0,0.0,0
12.961500000000001,7.2044978285991705,5.11800929496272,6.155964962793858,10.964302167065755,17.276368271629305,30.020308147209683,29.057836562033916,14.423868468564526,-0.12686012949191658,-0.07364292314274123,-0.2566868696334358,-0.0965404839909113,0.3049091872536328,1.205567223276101,1.425374964228921,0.6748461459710084,1,0.125,0
13.061499999999999,5.214924593407047,3.8397555795463174,5.010481989989614,8.557156440019163,10.599392688556941,23.012595584295823,19.081487945410643,8.434977687275834,-0.5386238949095048,-0.39830497803546,-0.3808442784247002,-0.49187667690198855,-0.457005997352652,0.6783327177969631,0.4270406130234179,-0.22220221128401754,0,0.0,0
13.1615,4.302591734114764,3.281877906757824,6.704304480356251,5.76989353220195,9.816769370442973,36.94582137618849,25.62892336980943,9.57783269148152,-0.602282684319336,-0.5564049757052996,0.11337582253479306,-0.9463160056448408,-0.5977217450520147,1.7542364122868797,1.020681299500482,-0.2163404757127808,1,0.125,0
13.261500000000002,5.152754657877714,4.247588150254514,7.6482879674541255,6.722220864313313,14.746551685292275,42.22429439938526,27.63589891401434,9.08433896381245,-0.38308322762052915,-0.286693048270737,0.4318679019542801,-0.7657907439853708,-0.007356858251814538,2.0491123836230196,1.2667202156895552,-0.24819629374171837,1,0.125,0
13.3615,6.525922888620026,4.163142684181614,6.512487222827532,7.046428424101282,13.288185299532444,27.471494424675207,19.337832809892106,7.670314721074592,-0.10049644927177206,-0.2901906307930619,0.08386276223835339,-0.6534175717797034,-0.21508244448285754,0.44721925518830635,0.5953391445116445,-0.28828144355382757,0,0.0,0
13.461500000000001,6.366172886721775,4.489252243619493,6.282677006519357,6.492383104629785,8.726805981015511,16.29056177828974,20.064401682944606,9.509131013931317,-0.16082797392990358,-0.3046712686132003,-0.11684259666053483,-0.8310037130479772,-0.6615603571257013,-0.0018010408601179526,0.675648606048258,0.05888267512552457,0,0.0,0
13.561499999999999,6.373271107683389,5.006821576118779,6.009414911151952,6.028164265238034,7.968887331424966,22.11475021321986,28.175567153514496,10.738674574832554,-0.24473690598071918,-0.25092501547027274,-0.17295851920420813,-0.9606838336039674,-0.8107998447671576,0.5831427925087297,1.22012466994714,0.27210799089722826,0,0.0,0
13.6615,13.629184766650443,9.85810171098352,10.702301712355128,13.061914390689335,23.04054087862297,43.20495780012278,26.59526694886776,17.65984624412941,0.8368809228537281,0.9041224504584978,0.8012225896685762,-0.096813113475089,0.4343222180262625,2.1382086780722407,1.0063129178698609,1.104284540919294,4,0.5,1
13.761500000000002,13.096593515332408,10.862293447585134,13.472638684918667,16.850518321932203,25.96393636003105,45.89988921797035,31.63255519178854,16.65153495278184,0.6620770868009913,1.3989176006899828,1.6880027140485043,0.74062859320257,1.2704352060866742,2.2884192748204657,1.4246178625766655,0.7859860403879416,7,0.875,1
13.8615,6.782682421119029,7.445681876081446,12.775756076989406,17.980288031483415,20.866238181106965,32.14525223458105,37.595842136075404,11.03661982059508,-0.13204143620580505,0.5804668992433176,1.570829568638273,0.703730756621901,0.529670754181258,1.0218691188688758,2.138180737534112,0.2665111467996301,3,0.375,0
13.961500000000001,6.5518023169933395,6.608755917220026,12.272657370258766,15.28590499314387,17.59500090794608,23.994419538765534,27.552038362010908,11.364700053232209,-0.18436911027621924,0.38917822857774736,1.4856262402771634,0.23254800075722937,-0.16934752856702948,0.28111338708224876,1.04993098209412,0.3921023901204244,0,0.0,0
14.061499999999999,10.96394296778026,8.111510593045912,10.801239282228778,11.494889543491245,16.383184050722516,33.16390411274297,27.85873887974003,14.193124663237365,0.40815830509645934,0.6628459251473546,1.112732618038126,0.008277689792089761,0.05229567722701944,1.1528841181322027,1.1262231501367819,0.6246424836066402,1,0.125,0
14.1615,10.94752609973031,6.94597606373946,7.634981269117199,10.515006652583475,16.455811784836445,33.669978328060765,24.504618340754085,13.34101469059652,0.37940039159379324,0.10238095916450062,0.13791365040601683,-0.31637229400814937,0.10898759606559728,1.3200896346196616,0.6244361951487892,0.2585773356440061,1,0.125,0
14.261500000000002,3.1714382062879207,1.9461171960366197,2.6555719576303325,3.2760020072016363,6.25755776660568,11.021808676607192,5.021137416592039,3.3640888889378475,-0.7950621905184896,-0.9176257155334039,-0.9134415174558734,-1.2399376039842138,-1.002479433407845,-0.4406434949368647,-0.727118721561028,-0.9307382957279497,0,0.0,0
14.3615,1.785115271952097,1.3558615075347857,1.6279352030682053,2.408959379787764,4.4662989813337175,5.027882840046661,3.3463010899562,1.7881616320516014,-1.0510615259348501,-1.0742487338044804,-1.1295276484552275,-1.3828619799518425,-1.191549665771282,-0.9016319167711673,-0.889204919602978,-1.090092120776062,0,0.0,0
14.461500000000001,1.3107118518577614,0.8090966525118428,1.1800050211563096,1.3327951673320217,4.39667512196306,3.2042646284304075,2.8190171605083676,1.0123534721240384,-1.1081293497742435,-1.1621628099923091,-1.2033734219784935,-1.562396073781342,-1.2418778481538009,-1.1050658492246412,-0.9062047261632875,-1.1877962531765867,0,0.0,0
14.561499999999999,1.2341454947598183,0.888236525676559,1.287290233608487,2.1665945907791375,4.661985962772336,1.991997847090802,2.5968922455939043,1.392875448813694,-1.1395654158766504,-1.1338497714269524,-1.1871356179813952,-1.488879338307073,-1.2532124454295326,-1.200633293229913,-0.9464118077232283,-1.1360935888343764,0,0.0,0
14.6615,0.9612177529243214,0.8001364597623403,1.0618260772065429,2.102715205871223,4.493411006969904,2.4226044300037266,1.1970301941311199,1.242483459775268,-1.1665638043685933,-1.1697922017563827,-1.2694295050316022,-1.4765287291961986,-1.2527906799416078,-1.146043224215095,-1.0892720981350248,-1.16867414110763,0,0.0,0
14.761500000000002,1.018863810931911,0.9110180508781262,0.45384210999118874,1.3515332849563997,3.309775578586464,3.783383138571437,0.49201757116214195,0.7871896487468312,-1.1450387614438378,-1.148480736552695,-1.3595627156634362,-1.5480189958043038,-1.3560953849899071,-1.0357527363162986,-1.1409594228116164,-1.2237388044539248,0,0.0,0
14.8615,0.9048714254078885,1.1689756838665872,0.8328614936510584,1.0817830031955389,2.500969125580712,3.611491799568523,0.45154149778391095,0.8097451055453039,-1.1612579392276583,-1.0667205356711604,-1.2610095092825981,-1.6112778310221443,-1.5023667277609176,-1.0602001852884848,-1.1422463879993472,-1.2168439127601594,0,0.0,0
14.961500000000001,0.9596730846410237,0.9528042256126212,0.9162514395506159,0.5774402752751001,2.075181811797231,1.4498742448199862,0.7841703654727268,0.8569789403114527,-1.1561995347885714,-1.1537204695668792,-1.2325594387825498,-1.6692499648737529,-1.5275072880346996,-1.2263771933664598,-1.1129580147100808,-1.2106763438639212,0,0.0,0
15.061499999999999,0.8258458237292257,0.6862758194852565,1.3050910020913793,1.4065231888073482,4.379552946752625,1.8838969328198287,0.9959070220496559,1.0212794884863858,-1.19473437119815,-1.2274442986769751,-1.1875451154228456,-1.5490605597942997,-1.248815351284918,-1.2121255619218796,-1.0937772196781,-1.18432114530061,0,0.0,0
15.1615,0.8016479184931278,0.7523901457007353,1.316282856357766,1.655047943050273,4.5287963388156,2.143096603977677,0.8673126610312879,0.8657835685288829,-1.1957048532528702,-1.197704967365818,-1.1820465700031486,-1.4815054201295006,-1.2321801401619938,-1.1862112445643924,-1.1097397032841705,-1.2167862887042975,0,0.0,0
15.261500000000002,0.6889727779786379,0.48369074564229897,0.6941565678571601,1.1457944403550058,2.7580992387043852,1.9368187604422045,1.0710175872838534,0.5558786846213111,-1.1958131179772962,-1.2487485232166082,-1.2981253235782773,-1.5753364849799936,-1.4307291641194695,-1.1974666281762085,-1.1007221395841296,-1.257571455616792,0,0.0,0
15.3615,0.642218485404413,0.7091543394947614,0.9962274091332827,1.51497593693493,3.5773695112549,2.812834750184904,1.5688758766876678,0.9575917605917509,-1.2002132858682502,-1.1935665332051681,-1.244676375991628,-1.5409121676297255,-1.3238425904746096,-1.12198720726578,-1.059261986271029,-1.2003047372219735,0,0.0,0
15.461500000000001,0.5370090321535991,0.7470474111475052,1.308880462009043,1.9353195878924865,3.347895340350758,2.5605323811691307,1.756248204462094,1.0227537358926466,-1.225646300622104,-1.1872110814250216,-1.170992941780819,-1.445960049985163,-1.3715332968218426,-1.14604299120918,-1.0296906733152555,-1.1941872829756561,0,0.0,0
15.561499999999999,0.4961575195264421,0.48207073098579756,1.4782784923605639,1.6087313343247984,3.692209635359708,1.4921031215337592,1.6320722754080341,0.9675547339186376,-1.2388087895297675,-1.2544279742789817,-1.1263496668953863,-1.484915694294736,-1.3450595798388278,-1.2142573771849907,-1.0260121548573478,-1.2045502004313375,0,0.0,0
15.6615,0.7098504996484851,0.4906310176063026,1.281736962841323,1.9726130600505656,4.299536310961219,1.7407535068744775,1.1616215500441676,1.251570990844116,-1.2052351409961763,-1.2513452819600277,-1.1749438303358242,-1.4215001521247097,-1.2210895042876784,-1.2012373689109004,-1.0775527899442459,-1.1456355461342789,0,0.0,0
15.761500000000002,0.9616644931443581,1.019916900852732,1.0350154002573688,1.8992639296712854,3.0764921808593217,2.429726851082202,1.1367526961533854,1.1619068280549072,-1.1581486468072097,-1.1374417930481495,-1.2120362576184491,-1.4419346961023862,-1.3777974996852598,-1.1544003283450974,-1.0803251500304958,-1.1686843844317616,0,0.0,0
15.8615,0.7858370056970273,1.4296264252134265,1.281178179054831,1.5713551519358677,6.008032588887182,4.840090560051883,1.494266247920186,1.1161545281164693,-1.2082388649580418,-0.992957491071035,-1.151656790908384,-1.512760339158593,-1.1101881881823825,-0.9584815873318446,-1.0470553828038647,-1.1872143411282077,0,0.0,0
15.961500000000001,0.7518284966859746,1.2739454242737203,1.3194681400094477,2.346138733084755,6.839617285931705,4.622561341604812,1.3878627934702807,0.9973057315212075,-1.1997995636378003,-1.0364265841015832,-1.141826570011311,-1.3856030631055665,-0.908287803209077,-0.9810496387582063,-1.059680003951246,-1.207557160003466,0,0.0,0
16.061500000000002,1.068445463323224,0.9899928562791029,0.9793423633779789,1.9977292414700285,3.8618111786683817,1.7145221235660444,1.038692445484715,0.5440996009685926,-1.1171991773655454,-1.103603957573294,-1.2251212336322272,-1.4559363241207317,-1.317671188012006,-1.1966532300729893,-1.0871231220748176,-1.2573571307345786,0,0.0,0
16.1615,1.309638734282075,1.0104586167110274,1.2320831336292868,1.8210707458375204,5.869296654592989,1.9374800190521584,0.596878496983911,0.4874526566474995,-1.102144822470827,-1.1223976101931266,-1.1965917127926207,-1.464542972753914,-1.1368234661337548,-1.1875056728599578,-1.1365410094515978,-1.2660481823012408,0,0.0,0
16.261499999999998,1.1150187208957683,0.8866633396969829,1.3325529906838471,1.772088989710414,6.373857636186993,2.688021884880735,0.6316521194963715,0.7491379474380263,-1.1588763455208784,-1.172642269116189,-1.1577175092062924,-1.4887264861861667,-0.9685633942342143,-1.112828254657413,-1.137410505024125,-1.237522762348856,0,0.0,0
16.3615,0.5658746171495708,0.724024927620426,1.110079518387258,1.2978202828786716,6.170908156852014,4.312620330752936,1.1950151431414595,0.9107337479829639,-1.2199270406342584,-1.2010443510912983,-1.2088713382538885,-1.5615214112245903,-0.9654570786864833,-0.9862298867101955,-1.0719270610071978,-1.2077669269667535,0,0.0,0
16.4615,0.6347044112794464,0.6294972544465852,1.0139189212691837,1.5089538792447352,6.14688718681989,4.1252243332220235,1.1638872080676887,0.8373734109919688,-1.208485342575994,-1.227240388825147,-1.2482204164769117,-1.5075699058321599,-0.9944142003241258,-1.0223196664537069,-1.0769593414005834,-1.2180758539067336,0,0.0,0
16.561500000000002,0.7877087940013537,0.8372193414350962,0.5433432747981267,1.4384321202976966,3.6098424753951868,3.386297069739493,0.8238234435349352,0.8558726372015723,-1.1787670911611579,-1.2100421249439177,-1.3383559649819694,-1.533700747300684,-1.3005316027233298,-1.0850541887093168,-1.1085693992923138,-1.2138663144682513,0,0.0,0
16.6615,0.7415404442646264,1.045320026461455,1.2703113204455811,1.579481816812677,3.603322510514528,3.6469842474741427,0.7856736400903248,0.9072778174852059,-1.1865022697784373,-1.1582421412890682,-1.21568909814879,-1.5141572759138424,-1.3283218828544705,-1.0559073508753714,-1.1112036361817066,-1.2150690179093209,0,0.0,0
16.761499999999998,0.6895072870812586,0.8818589980869025,1.5207682815741979,1.6190052719319354,3.8567260236360084,3.012996600079266,0.6142500337723873,0.9963165141845026,-1.1955375337258016,-1.1639379494036342,-1.130484621156311,-1.495615263074511,-1.3402329978570962,-1.1073494946984783,-1.13051248788741,-1.205824598249555,0,0.0,0
16.8615,0.7559697689231086,0.8498306747123467,0.9850785173059776,1.401840564043412,3.8033908687358595,2.7901027458976095,0.987241758566423,0.984787219633137,-1.185457413201196,-1.141977246520007,-1.2584503673054455,-1.5465988458514048,-1.2933908576385686,-1.121896477627191,-1.103720810477653,-1.1940084718600905,0,0.0,0
16.9615,0.8030708965170986,0.8682259031638808,0.5751038990457428,1.3030477594211165,3.3680196234044,1.8468656758396949,1.4148941097585737,1.269119435367824,-1.187526456398325,-1.1382778925548824,-1.331299959048777,-1.5467257736929971,-1.3041089729498454,-1.214948841854145,-1.0570904391824347,-1.1571556319479763,0,0.0,0
17.061500000000002,0.8171914130203908,0.8183468097803334,0.4823455434626596,1.3673412686004915,3.5745256655691136,1.9704342600519251,1.333355214872664,1.303820035600946,-1.1863151794170022,-1.1426309431756518,-1.3513805999592128,-1.5226433460694593,-1.284085953365124,-1.1999844264990114,-1.0617199128072499,-1.1524353487238814,0,0.0,0
17.1615,0.7684990233932039,0.9118744556511523,0.7022719129808574,1.2015123162852428,5.425777656965411,2.463474833121353,0.9090090425669063,1.0876970498528509,-1.1855171785616228,-1.1231508526787655,-1.2990979656472723,-1.5555250318042377,-1.0680494863431556,-1.1196461636169317,-1.0998791919843702,-1.182817110249419,0,0.0,0
17.261499999999998,1.2321405058748374,0.7595117988805804,0.724982977034495,0.9872689981197251,5.693523005362028,1.5731206569512222,0.6017776625888245,1.262820606632105,-1.0893888891791124,-1.1922622732205246,-1.292395003091971,-1.5954231472918778,-1.0247544438284073,-1.2274839778185846,-1.1309163590594067,-1.1586142516124256,0,0.0,0
17.3615,1.2737532443595785,0.6170261354221086,0.8864771323771634,0.7079266390789982,3.3227033397073145,0.575954913235638,0.6090925329567778,1.1771869159435147,-1.0789125330276967,-1.2188057149510292,-1.2739745204255395,-1.6464949559216076,-1.376108248951927,-1.3043360597816014,-1.1384953015210666,-1.1656246639770012,0,0.0,0
17.4615,0.9794974997295701,1.0021815873057625,1.2558359167091033,0.8087344511758499,4.366772146792852,2.2057884964265115,1.4613540363637079,1.3221063872751448,-1.1475596190450552,-1.1166883620511658,-1.191526147509132,-1.6431320890007104,-1.3022238994508026,-1.202441384863907,-1.066036626991957,-1.1471217384339445,0,0.0,0
17.561500000000002,1.2632313034333227,1.0037015435458185,1.1708497930783126,2.100463337420089,7.4226116110452915,4.333187354446731,1.7118784774800995,1.59844943432876,-1.1006360477102004,-1.1164043063591114,-1.2176682286245428,-1.4597404836197854,-0.8902837658145631,-1.0196633534803992,-1.021758527382477,-1.1089805619834414,0,0.0,0
17.6615,1.1615287884586383,0.6788635314610806,0.9697606258338579,2.3610960508622316,7.01185028687387,4.2436149614211685,1.2414297675229646,1.2430208851367348,-1.119417245767693,-1.213471777855281,-1.2405906388933685,-1.3734441317797763,-1.003017670209225,-1.0207353650701512,-1.072986739414536,-1.171566213628317,0,0.0,0
17.761499999999998,0.7089241012933506,1.0778013205296035,0.8208647823116857,1.4955333059625995,4.522461576820994,2.83843008235669,1.0273889351570802,0.8241852312929026,-1.191441571447226,-1.1227067193510774,-1.2760312025170046,-1.5186543561783676,-1.2591532553814972,-1.099150463735677,-1.0898441246993795,-1.2097459382614746,0,0.0,0
17.8615,0.5805758986039102,1.0371120010556587,0.48803939699519533,1.1539422865652988,3.2339676519478173,2.42622960143093,0.9079830829943906,0.7617241811936387,-1.2192201106814535,-1.1311818807086442,-1.3595895826245896,-1.5680471751246898,-1.3599396965756794,-1.1334748703873045,-1.0976584468949282,-1.2217256177208775,0,0.0,0
17.9615,0.5962440384889519,0.5879620339377124,0.32313658976143517,0.9130815408606549,3.5931938765311786,2.2129984572464965,0.9046353147966344,0.4741621584750914,-1.227398861786704,-1.2219322423697494,-1.3840513179024347,-1.6225626443348184,-1.3221208054785905,-1.1551118514520504,-1.0964080500908633,-1.270768695481319,0,0.0,0
18.061500000000002,0.7599369449129086,0.8279706149065251,0.3858872234016025,0.4695955391729511,3.364523271835399,2.4834426001247225,1.3603212718071114,0.5047342753964317,-1.1860126776801239,-1.145864424185141,-1.3652875219722833,-1.6819285782030309,-1.396972311100821,-1.144907983059425,-1.0512739061213532,-1.2671800956691632,0,0.0,0
18.1615,0.9926273750597564,0.9709924272619148,0.6558738516285599,1.2292322459713476,2.664223967245824,2.7864730781996925,1.5659112442323975,0.6200477045909782,-1.1326374285306604,-1.1053782215685082,-1.3179285001202075,-1.5738180441682335,-1.4418644441275936,-1.1358714022790928,-1.038586915572339,-1.241496544054796,0,0.0,0
18.261499999999998,1.0605597874448942,0.8965916230512788,0.6603666470694809,1.2324937494188197,2.800882567744393,2.2874710152979487,1.3204667440175224,0.6287577605573882,-1.1225869043712995,-1.1375576860388668,-1.326015944891056,-1.5708488265144742,-1.4131195180986582,-1.1896890906766655,-1.0683007917184342,-1.2405358397658162,0,0.0,0
18.3615,0.9655001197732399,0.8765125181749063,0.5492006443870975,0.7065068763757653,2.226184214082207,1.06051754266597,1.0137920294298433,0.6074300629946122,-1.1574018824354093,-1.1478981039271419,-1.3387910884838894,-1.6372562571401656,-1.5032349841156454,-1.2603684558078596,-1.0962931139982504,-1.2468621003567377,0,0.0,0
18.4615,0.948601025375311,0.7582871247659697,0.6745377358978667,1.0502637094004448,3.3278343580510996,1.1410202504721436,0.765424274750009,0.5738822429451342,-1.1664963180131485,-1.1882676474936618,-1.2970652546408332,-1.6056863102291659,-1.3477943646175716,-1.249308405366239,-1.118120026574548,-1.2502423952164328,0,0.0,0
18.561500000000002,0.8344928338390257,0.834318734593561,0.6441738324502458,1.4890092755903328,4.307481991544328,1.819363717781046,0.9540521475209777,1.184807387353163,-1.1799087244608062,-1.1652835209920291,-1.3169657871634315,-1.5257556992376096,-1.2309107427937171,-1.2065310400143716,-1.0931981140803702,-1.1738194388250123,0,0.0,0
18.6615,0.8611284795918785,0.9506577026186988,1.263716887917982,2.0687144084986424,6.722983072543997,2.607378916603807,1.049240381800191,1.1786723418642557,-1.1767119059938347,-1.1204120758941842,-1.1939918082800047,-1.41074410804827,-1.0309465408134189,-1.132915012346527,-1.0818285599325075,-1.1777560486232554,0,0.0,0
18.761499999999998,1.0098336729312685,1.1929405295304552,1.7868378797452686,1.728285093556853,5.910518209930998,2.1354858655733175,1.1318297790364922,0.723960123458033,-1.1350714769777077,-1.0795028369150088,-1.0575575347030828,-1.5157315548593764,-1.2232252380375355,-1.1886828631707396,-1.0800155572129106,-1.2288304345367673,0,0.0,0
