t_center,rms_emg1,rms_emg2,rms_emg3,rms_emg4,rms_emg5,rms_emg6,rms_emg7,rms_emg8,mean_z_emg1,mean_z_emg2,mean_z_emg3,mean_z_emg4,mean_z_emg5,mean_z_emg6,mean_z_emg7,mean_z_emg8,channel_count,frac_active,global_active
0.1625,1.2929599723954104,4.9752944596347,1.1025666462081396,1.3279646765820876,1.5510861965502605,2.0631650350058606,1.3084614559297918,1.3260946156800009,-1.0098652370428038,-0.620386709318054,-0.9593457821367559,-0.9253203337001067,-0.8468649227855574,-0.8552565191115812,-1.0422445746335167,-0.9797387024785752,0,0.0,0
0.2625,1.4160007087057647,2.429562914118708,1.0368394849355689,1.1216131979132207,1.1559016674815081,2.3182783575714616,1.140238693711492,0.9869953504000988,-0.9975248754817231,-0.9537182055441822,-0.9584011914005045,-0.9560255268851141,-0.9162957246154355,-0.8360392401464116,-1.0583608227172103,-1.0250150184492928,0,0.0,0
0.36250000000000004,1.0489171954143153,1.821843418258187,1.6485488607496117,0.858804888231062,1.0387596357894129,2.300965086908687,1.3921812864790735,1.2499521514214345,-1.0226179838689529,-1.038598306242553,-0.8816063186280222,-0.9948168312576445,-0.9582160296771582,-0.7994823610255236,-1.0235826229145066,-0.9789008590635453,0,0.0,0
0.4625,1.5636916798659788,2.6541904281538615,1.750517508319284,1.1127308588198015,1.5362295672596067,1.5433976360050305,1.8060122245471464,1.3535187152686576,-1.0013209539826184,-0.9051225008366554,-0.8746338719087317,-0.9589420323010258,-0.8589419475696591,-0.9000499784844694,-0.982496626174074,-0.968964131882867,0,0.0,0
0.5625,2.454651734635264,2.269071995791086,1.2641493419876855,1.0017866566665485,2.0051925370683636,1.899676527998078,2.7803420082888097,1.2370469989030304,-0.9396268283175426,-0.9737505768654131,-0.9460365825649854,-0.9627195357743641,-0.7173379252630642,-0.8563390300651943,-0.9018665112646602,-0.9868745160500757,0,0.0,0
0.6625,3.173336306565349,1.7537984583920692,1.0749867807368751,2.2312434282571605,1.784704640107767,1.4274181463233642,3.307305043292463,1.872347950759889,-0.8938061170078393,-1.012166942672562,-0.966788319144703,-0.8239024787143763,-0.7805466926323777,-0.9581466720363584,-0.8324221679342392,-0.9052910698103155,0,0.0,0
0.7625,3.814743729064528,2.3601335259608263,2.180402019409579,3.308934712009247,1.5474156919873392,0.9252592231646537,4.086284020631153,3.354097089736318,-0.8435860668643949,-0.8809325140076819,-0.8502128684042767,-0.6667728095761813,-0.829117873185583,-1.0101783142769,-0.7564359137582539,-0.6727086970995657,0,0.0,0
0.8625,5.1637631646196205,3.3776725330270567,7.053276018986924,3.529831831258853,2.133998042336144,1.3423966466946948,5.756785471159001,4.097456832410638,-0.7709700112243029,-0.7272707300560057,-0.3025978380364142,-0.6407562535265103,-0.6758508519222679,-0.9250184663802754,-0.6130408803756336,-0.4993731537546301,0,0.0,0
0.9625,5.514052377034688,4.446489744758795,7.026610905163817,2.943656450518033,2.0309251932209644,1.4220214628951762,7.050409391894182,4.550354585331742,-0.7784183635407942,-0.5174029732068689,-0.29681343762820406,-0.7249317933454694,-0.7379342788396498,-0.9152992269924379,-0.495019667688746,-0.47437386606473403,0,0.0,0
1.0625,13.84900293592228,7.4195630084937365,3.9141069122255447,3.859638777013416,2.714151064413509,3.7973388212747885,8.406342064837787,6.433873766110465,-0.5169211864024327,-0.12446322566570106,-0.570962011114133,-0.6308195567010998,-0.700765079270539,-0.6599095460531658,-0.3499980438351913,-0.3182119870459476,0,0.0,0
1.1625,49.86791532832406,8.533106027704147,11.911369011262735,12.183104565513087,10.642241968995863,5.358647029036715,15.218734025507706,8.579260319149622,1.1095196747701097,0.01582093985249413,0.25412946177157303,0.17881084765261648,0.6025296933398888,-0.3136250158751734,0.12240958314591638,0.01272946455703986,0,0.0,0
1.2625000000000002,56.27483658785717,14.268494044822102,16.2044503953394,12.875138538638142,12.843101149070497,10.36001577519652,38.20487841800936,15.172492770394758,1.7489934436149754,0.3449429650584929,1.0293004990581298,0.33578132895830426,1.4763558767098472,0.28630832093042907,1.7662283165227182,0.8943169996828891,0,0.0,0
1.3624999999999998,43.5887697549814,24.99101285719424,21.40223415031197,26.32202128725528,12.290138433627051,13.280607551854443,39.3444831571468,18.265560401743905,1.2962208729972493,1.9611242413018866,1.6305219729309872,1.6641633017012019,1.6429630336691377,0.9781058843437846,1.8721054515508113,1.4624313856422506,0,0.0,0
1.4625,45.012038228179144,31.40809320579495,27.974612487745073,28.06717933719195,21.60181438525768,22.304218844475304,39.27053393150135,25.998378004417198,1.334675537285817,3.295566041415641,2.765805051450193,2.1525850719524304,3.378819744126764,2.4232272279417093,1.9810639354920352,2.627121145175983,4,0.5,1
1.5625,46.98668936805239,27.105470337433264,22.94365435690848,27.11292065620154,22.257879961385203,23.161081300623863,52.04183449857659,29.26487704761684,1.2634803867256887,2.5956949995531904,2.0229644544912477,2.108551950403041,3.348901537895805,2.817399129648857,3.53170726015475,3.3054412130352726,4,0.5,1
1.6625,54.43761176933333,26.292266115428006,14.67160231140222,29.582972943835813,13.339264906165596,12.241171553115151,62.48145855879113,28.301863863088297,1.8969446817470115,2.602315882570871,0.9695895021059426,2.414329369006514,1.5443249850464327,1.0619142631157117,4.842739165522572,3.1722879562975765,2,0.25,0
1.7625000000000002,49.73263786413352,26.60054249583517,17.888273099997622,22.08771713089618,10.226371105871417,15.929102013234473,55.67018016780683,29.971189361604523,1.6688205233054947,2.4162287298794416,1.3960637932715583,1.535429737080193,1.036017960420453,1.2004684907663543,4.072434914021574,3.271462635101088,2,0.25,0
1.8624999999999998,55.64128387469205,34.27738611786602,17.65650159196873,31.94591549392914,15.996602336137407,24.168336713526998,61.43540019648754,27.949354055151378,1.7885063001669586,2.980735187487357,1.32821420791435,2.6971244811847814,1.9703208270014132,2.882405479465877,4.226260597326524,2.572588302806874,3,0.375,0
1.9625,72.30879326073834,43.24633175827123,25.237889346450746,40.490918524052645,22.399112487842228,29.21855648384563,60.31626586005591,27.208391190372264,2.7516372164512863,4.920570715633355,1.8253596003571928,3.76888910237559,3.582835001680644,4.195923010988676,3.6675263469844843,2.481453087639419,6,0.75,1
2.0625,91.74918248506222,33.24834653024384,32.83971434335044,41.4497073880352,21.060921489348143,25.73354344162201,51.410693048796354,21.459191799866005,3.785349294264628,3.4346853838770546,2.9150541433923833,3.6609937771495837,3.280107454206268,3.482421950635055,2.731348805807076,1.6046083793133474,6,0.75,1
2.1625,86.13314018399394,19.378306707441876,29.609338193342026,44.24962946469858,19.98907431789122,21.309769999003873,55.32790014596996,12.458055568666747,3.5378643016258997,1.6102187060284465,2.728079926713698,4.214591099823224,3.3117867328910062,2.766733271139202,3.690133243193001,0.48973511991439095,5,0.625,1
2.2625,65.47772766161447,18.69061543161346,26.209262690928814,39.513059826137436,19.703551856386976,18.862724808325517,40.12488053091209,17.46095459811252,2.503164601672411,1.574645148006657,2.338683729665268,3.643388220157525,3.3649313108963046,2.1595870592684197,2.471237060937748,0.9880152982408811,2,0.25,0
2.3625,70.4670085947829,23.783321797075,24.81700348859226,27.50668480087197,14.488521312222064,15.781490263818142,38.574902626930154,30.894033398131505,2.833219820903564,2.2630698820473008,2.216782178925116,2.1537175909165875,1.9715983528912817,1.708677069938637,2.096041731742626,2.939532233077644,2,0.25,0
2.4625,57.132758143123596,24.398518278065833,17.060218304922483,18.726019940452733,11.120095336784685,19.218200210560774,40.819608759288485,30.974811810648713,1.9485548378277895,2.207605677399886,1.0969267896643498,1.121470493741448,1.3072143709291304,2.197245172028472,2.1628877039263332,3.2542453053057527,1,0.125,0
2.5625,49.72992644715445,15.298308966651751,22.143846873464433,24.720582691589183,10.474423118963658,14.060017951143823,32.181968528207875,21.664437704031243,1.5825109067149854,0.7380020636598219,1.6092409602354925,1.608167305361089,1.2190872365235592,0.7687532349426945,1.3088451939050614,1.9187953201737766,0,0.0,0
2.6625,50.384229201834316,8.088774081479599,29.504668559285346,35.12637987290446,12.483518885162741,9.83829341252416,36.638462071379,18.314113166621564,1.6442309248230162,-0.08134082124443315,2.9556010079097836,3.182292498983378,1.5906857830546353,0.4749859977672174,1.9817022207463955,1.1338375602627178,2,0.25,0
2.7625,52.600263326905534,14.93384671456377,28.039051872834666,31.593185000806454,17.003047131969204,19.87102525134096,35.19201156523219,20.124461109649616,1.4052011983478956,0.6737512037507005,2.652240247237856,2.5022518026441687,2.271921201385021,2.4226551807907843,1.5684996392788233,1.5067855524784355,1,0.125,0
2.8625,47.0948686257903,18.315530638836748,22.614785577234358,19.936114915992576,15.539044400222144,18.465707754558746,21.583609185258606,20.082620484710716,0.8978802564733374,1.3504420378169013,1.781436530975062,1.1091876405860868,1.917325656850244,1.9916015284561417,0.37507147082405795,1.6541640397069681,0,0.0,0
2.9625,21.65220086269397,15.529240032263761,21.44636565877112,16.556102243676847,8.999572551232374,11.694292298577244,26.09700384105617,16.621295665967125,-0.006233273355890721,0.9436567947170831,1.7608310588350764,1.1239464220890323,0.8435854718944765,0.889935480992569,0.8468887451953648,1.2516206934916196,0,0.0,0
3.0625,24.88823885768602,17.474826569262458,29.29039446588857,28.118849691265805,12.233466909039324,11.663822733116232,25.222548506391856,18.953016179918073,0.13979463827956987,1.2405460666356687,3.0084276873980325,2.3076884322759756,1.3070755097340685,0.8266786539257288,0.9999044712054892,1.7013891489196609,1,0.125,0
3.1625,30.932323172244246,16.077719538583327,27.549732831385196,30.2912819247466,12.517866073489785,12.01935068665836,28.154281743373296,16.1212430433808,0.5104302760254241,1.0702397332046716,2.7174613071930867,2.3596488498068258,1.2593114255857853,0.9976595331560104,1.2256319833199232,1.2107788335209355,0,0.0,0
3.2625,29.49298519043462,12.159267431763412,17.224001889039034,19.629409943217123,8.877897246857584,13.111693716887453,31.649195790814435,15.41803610018054,0.34199470103385077,0.459477699741208,1.1916117263058956,1.0059639649901941,0.6733826567939419,1.2135678368105152,1.571199190446808,1.1977242747782375,0,0.0,0
3.3625,44.43658388455434,16.87962910174255,18.21082405501986,10.725134527018653,6.740074145680032,8.88257024401506,28.380861407850325,13.42641158662293,1.0520093070883434,1.0635616336566913,1.1850359590091224,0.1773533472431953,0.22990467728805608,0.30459971207769604,1.3896175304860379,0.8320480003180772,0,0.0,0
3.4625,47.07994035703668,19.216512762796583,30.84452673978989,21.75712095083856,9.815085695409401,8.405047962445314,54.85450417121626,20.600752872158527,1.424140616433258,1.4724107105105524,2.6642589595776163,1.1195745261949948,0.7425787312954888,0.19493724714649482,3.2883764692482362,1.3205466716811094,2,0.25,0
3.5625,28.488710198351786,15.147273738092958,35.35181339110174,32.12805076579766,15.244072603809908,13.830212294778066,56.55501712712565,20.551635718704855,0.4764679421300273,0.6887064932814646,3.734718443595304,2.800621594086439,2.558912765599849,1.3746800173920022,3.614395369813238,1.1844508449531514,2,0.25,0
3.6625,18.592443543422643,10.78511032009848,24.737982499621225,26.67065140652241,16.96875648996355,39.262833971654075,28.74269888075518,5.053786206625632,-0.0704234418843206,0.2503941642361394,2.2972769249423477,1.9621961981435805,2.74504429059321,4.856943329035847,1.503492619661266,-0.5874839502979873,1,0.125,0
3.7625,15.044062122967906,11.420736802667445,17.72653340358014,12.451970593867546,14.873168599459559,45.496732213515145,23.43188008873301,22.132425952454565,-0.24733382725843936,0.43812778582595313,1.3113084701205056,0.2375203275051744,1.6404954609532307,5.864518744255091,0.931744567533909,1.2126852010585505,1,0.125,0
3.8625,12.463947137021272,10.03575573613851,17.832582015771926,7.432804502405792,8.779520360698715,26.142570344861607,12.612565023330639,22.499104275740077,-0.5079799491321058,0.22700188126996035,1.0376623429503542,-0.2507821292524882,0.1399742166543154,2.033891379060438,-0.2296903102532868,1.3988326108557794,1,0.125,0
3.9625000000000004,3.1761260457981,7.795655074925773,9.697596759190265,4.79606538717414,2.076789072991361,5.130754222013556,3.336870233099862,4.535130846558584,-0.9081738044787894,-0.037695627759121664,-0.27730358001770794,-0.5194422296864694,-0.7707212453781653,-0.1897873744439363,-0.8286891462601441,-0.6897651283780022,0,0.0,0
4.0625,2.3598963472507783,6.918804054426334,3.7794987110644973,3.5047857534851903,1.5486603783460409,4.159322742336918,2.3867535572931837,2.0023928936175492,-0.9466171423452614,-0.27239816690987917,-0.567870139028447,-0.6248057964402005,-0.8317138050223452,-0.41603164692655575,-0.9309184727941197,-0.8811858900698197,0,0.0,0
4.1625,1.2454703674893892,7.967481478946115,3.5899525101177843,3.052359867288831,1.638229737532359,3.8907459468519963,1.5064061030938167,1.9889492640463544,-1.0180907410064477,-0.25731262513982445,-0.6026373352271941,-0.6770684734335962,-0.7952864151165846,-0.4775124835517693,-1.0178131612128494,-0.8757964451334371,0,0.0,0
4.2625,1.6723101542054006,6.715230038314651,2.655439020536401,2.062836636883506,2.048606470750089,4.164159987550084,1.4073108129200353,1.3291064936068728,-1.0003272500354192,-0.43703685879396853,-0.7297024934743481,-0.8137138331225426,-0.7234956125472055,-0.36681705225620476,-1.0269050295477584,-0.9862704385792803,0,0.0,0
4.3625,1.9635172824799998,3.1274810842452974,2.5161457898974944,1.2734229293012935,2.6390167306606793,3.7347704850108827,1.3277113914155714,0.7586550686108073,-0.9804156823205024,-0.7997166697919441,-0.74519327038781,-0.9325032771404054,-0.6278215849383382,-0.47006213192917473,-1.0412940356001448,-1.0580406742877622,0,0.0,0
4.4625,1.5550017092745496,2.105282228596539,1.818166176205636,0.5795833157230826,2.1144814071682303,2.63529312716646,1.0084521570180882,0.8008047094939363,-1.0072739777924067,-0.974866676385982,-0.8438830308913122,-1.0066863107961068,-0.8012667854107575,-0.7296088230744665,-1.0674396622610072,-1.0487126563406202,0,0.0,0
4.5625,1.44010348513895,2.643775035250186,1.6107052432509223,0.6962758213949416,1.142491384372968,1.3859703433850243,1.6147056636814368,0.7221986656674292,-1.006572979840342,-0.9143139703580581,-0.8893594399839632,-0.9982539277255071,-0.9367317988723641,-0.9296137505830202,-1.022480592200275,-1.0710766901373296,0,0.0,0
4.6625,1.1270287690525305,4.4505920709146505,1.67797654753863,0.716813533473813,1.5723162335960996,1.899230789253766,2.056316109250777,0.9072821654673427,-1.0182482583788564,-0.6801321822212855,-0.8556340218892552,-0.9933187786636354,-0.8552563088812489,-0.8158192206122641,-0.9721711501661996,-1.0492975530943085,0,0.0,0
4.7625,1.9442684722886858,4.012562577370128,1.730042095047577,1.23552052188292,1.7772232382244444,3.187778082153557,1.8175703346151988,1.0697379665157236,-0.9741989734345934,-0.7900349485686862,-0.8486819679777817,-0.9361044102707504,-0.8228221764864485,-0.563284342139406,-0.9830160356120285,-1.02191414444503,0,0.0,0
4.8625,2.5900772483526646,1.6026309741859257,1.073050898643982,2.1783165878356177,1.952004356646202,3.7519559595899095,1.273666147857098,1.2404443310597766,-0.9204266666078508,-1.0556204351404113,-0.9545883337857741,-0.8050035662349043,-0.7739350548998474,-0.5330074890343753,-1.0378620956815119,-0.9907914236678645,0,0.0,0
4.9625,3.496154539000465,3.600958776545944,0.9507586195550433,2.8194344755717724,1.6713039432275707,3.166382055330578,1.5036936626540882,1.5208628114912612,-0.8702917532502777,-0.7639621441132458,-0.9743867769196531,-0.7024301216387685,-0.8402019077626136,-0.6852583720299832,-1.0208705901645443,-0.9435248789198113,0,0.0,0
5.0625,5.189428975031191,5.058688270847981,1.482824902858448,2.9286991716472883,0.8921729075279107,2.057847801018727,1.738022385189234,1.740401185835706,-0.7815920003480169,-0.3819109162975215,-0.9112572428030455,-0.674193107401716,-0.97034840300377,-0.8266117143201095,-0.9889271504768244,-0.8961484052558523,0,0.0,0
5.1625,23.599359465387092,11.268206679322894,10.31214927457466,6.695173262356499,3.531434295347208,3.091688990839718,2.0249967845604826,3.8342952237977226,-0.2514330000670771,0.30139987659463774,0.03090475106064289,-0.45769157109395037,-0.5322442430566354,-0.6779489017160203,-0.9809533088315433,-0.6637423676455511,0,0.0,0
5.2625,53.307063905579696,18.083811355367526,12.210910650493716,13.65165479421866,7.73868410645833,8.984918217223502,29.105969337869787,10.381860056568438,1.4436434211383287,1.2334933242187036,0.454293923129055,0.17277774630252332,0.46061240972211065,0.2874533789327365,0.7095819234021739,0.1698480584511974,0,0.0,0
5.3625,71.42915118283993,27.61482425566477,19.086117112378172,16.08395977997518,15.69429120906026,28.15571830599418,64.75674878104509,30.384914133277338,2.8828098773353172,2.605880489700183,1.0812645557554172,0.6680843555489158,2.186651021032401,3.491428933991787,4.51354835043391,2.9487098238163374,5,0.625,1
5.4625,64.65815362538609,37.08956681147016,46.189918135793626,22.728774200347743,21.920325084656582,36.65468538302264,74.46219616604411,33.118359889001084,2.3816987953394584,4.001871691558522,4.413312029063702,1.625987732866197,3.368459845733978,5.700601075186217,5.633858371525729,3.6885814220275064,7,0.875,1
5.5625,55.797639892895816,31.99492862554744,48.360345972410464,31.242248687503768,19.167158711210394,32.08964339875097,49.07868258525309,28.646528498064406,1.7886411356369967,2.8102758465135684,4.973393481835974,2.6685063341101563,2.547408794231658,4.750816354128393,2.5702903365089442,2.6970973141534325,4,0.5,1
5.6625,53.54523115217701,21.234799894028697,27.342501238701114,32.75897853593639,15.464364827426028,23.48863648385828,41.980188744569226,25.97710948259372,1.6923507297072353,1.7491606429359305,2.6473048440948954,2.731524003461517,2.066246230359303,2.9900551602311025,2.187433141361057,2.1705273446780784,1,0.125,0
5.7625,36.462057325815415,21.127408933573573,27.583426435531223,27.27556383235766,13.198012993425332,15.95380856953515,51.67017884054251,13.184891089702202,0.6977845770241896,1.884623660810158,2.2519362802906215,2.093930304274801,1.186664322653904,1.6892501531308701,3.2706125018928582,0.7155277515745133,0,0.0,0
5.8625,21.86949824316006,20.03352877908401,27.17810881298713,16.018882683261246,8.217494339606532,15.114965250790299,73.33291668452684,19.311542450886222,-0.06177113691594301,1.5644978347123715,2.141492659523263,0.5986721323169624,0.5501176342356409,1.423267067608239,4.98890728026359,1.3900624302644373,1,0.125,0
5.9625,37.891623483789665,27.325106808439454,33.082259324129076,15.661567866414975,12.254522466212839,15.332242498009025,85.57344215087709,29.402926229026043,0.6609093141135083,2.6273256458828897,3.3810721768510352,0.5949132131163585,1.6032074249311008,1.3188949894301247,6.44978044689332,3.0086389882856044,4,0.5,1
6.0625,41.90850674165287,26.358954174965177,33.90460783426673,33.907159011508824,15.615206271621656,15.382877025568895,76.82212097860773,32.09802042038551,1.0768854248307074,2.4407469490379987,3.4814200502534614,2.8123050586871545,2.2125626092368464,1.4631254356029464,5.170166309039513,3.115084322996358,3,0.375,0
6.1625,30.271277903846798,15.663205892760326,18.41943991941663,31.511424697030847,14.144447984489634,21.473231670648847,61.688198985348706,23.305053439385954,0.4843159449117843,0.8803215939554881,1.264048194790965,2.147541361542251,1.8459277391071671,2.694010763814321,3.8867939618944622,1.4884803273474745,1,0.125,0
6.2625,31.76010139421022,12.245929591294429,14.729386070394245,14.649281634189412,12.182916310628109,23.773235657490407,45.06460721483341,16.860456302665696,0.5541544131504695,0.4885977210026388,0.8033058960601102,0.5405084839283091,1.558422513497155,2.9983067200115125,2.9904806252854623,1.0619010227414944,1,0.125,0
6.3625,33.32528420275874,12.420159087970909,17.19612320536516,17.10762874925282,10.878444899119069,17.583571034926248,38.13419192370746,16.8609315613475,0.6660058010190624,0.5633177231173314,1.3358496307103507,1.0001944820833288,1.1290182148214334,1.7295769281140707,2.0215629936308233,1.185121350619209,0,0.0,0
6.4625,23.140297391570765,21.067990336253448,19.66358248620093,28.35341383764392,12.403660845189368,13.32694843599873,30.26228498441154,17.090047190235897,0.015098110298494288,1.6888617166780562,1.7041085491053254,2.182032656277948,1.3206002313726364,1.199583417511825,1.4259424536149268,1.259379363323468,0,0.0,0
6.5625,29.095325362789954,22.82830448828512,18.393918901446362,35.789508390622814,12.457295907076501,13.854473695841445,42.41891220724235,22.09305024621245,0.26584270508062585,1.894785558211764,1.4947941888369607,3.481866862468161,1.4032150537399315,1.1006826960594598,2.5713024192156784,2.1689818341933225,1,0.125,0
6.6625,36.148396835803894,17.039862094797698,20.255180737858613,31.16871025193599,13.30801698671855,13.892835496345178,58.22654782217002,19.25761003736983,0.8787012161652306,0.9991071846457629,1.7255223088676808,2.8800370977480068,1.7264222556243973,1.1097868465636007,4.290685453655132,1.754177050193515,1,0.125,0
6.7625,40.56128221607276,17.49197572537693,23.720461845391977,39.38023728276546,18.6979055081524,18.409488718455577,51.11506886994169,23.164287062294825,1.0375856823635048,1.131805054582598,2.2170850129520336,3.6074823257265876,3.0777069156609334,2.1068631125337145,3.3868467335056547,2.072484554705197,1,0.125,0
6.8625,49.24641275481859,18.149648186845337,21.472507392219462,42.23926178687647,16.42409390365775,17.060449930107463,38.050699219477565,25.640369541602148,1.4791145867728546,1.1789605517161035,1.829723561499054,4.1623160935156065,2.3998312672183193,1.760191036187437,1.7975363119842251,2.323525010403596,1,0.125,0
6.9625,57.21586980551098,25.444272831353413,19.961898733261815,36.91053918127012,15.11990646293361,10.86764082863519,48.325495021354136,20.420100583557012,2.015346180232128,1.994921339686239,1.4667624956099155,3.5086427196231034,2.2125498147785336,0.8444404775243545,2.7194246073779693,1.484087905370115,1,0.125,0
7.0625,48.5668503865373,23.912576833863366,19.09336878953839,29.61316825670494,13.774139156224903,14.957888109594688,44.055292087198794,18.128704036161135,1.4204472139954163,1.613767140355922,1.187327847673218,2.184913075250156,1.6674033396071122,1.6915215806325745,2.5471426271900737,1.3413875198765899,0,0.0,0
7.1625,50.56412238802789,20.20779701130998,15.111417521141092,18.154590373729828,10.711112347633655,15.019856377942022,35.50424092538698,17.766422193946838,1.5019212851887647,1.2173541947279067,0.7705295180460755,0.9762643758161483,1.1644588503324265,1.681797227480141,1.98367356091427,1.499029452262661,0,0.0,0
7.2625,57.14197996053707,19.076713493424187,15.540872270423343,21.931706551152033,11.554452359703028,15.639959547321757,50.27289133630777,23.880169242080147,1.9829699642115548,0.9715486806844599,1.061925428091838,1.378757771462482,1.4755647326084775,1.6917909309854766,3.0164313704022065,2.207178095343082,0,0.0,0
7.3625,42.295616488673204,15.652183736996161,21.345035113638307,25.827195364233557,15.014824468005068,18.454491339740848,66.8812192566596,25.053423676705698,1.1983153477996638,0.5710832437443273,1.8129602334073036,2.0061089921564546,2.1863283965144555,2.168322063630485,4.645805546758713,2.5687868251203083,1,0.125,0
7.4625,32.65845227510771,19.149144075288344,22.102313462099268,22.463923479812404,16.266741221935614,15.486319189732024,63.03268831306891,16.44433782710146,0.6545791245227693,1.2734868596787223,1.9534592389485383,1.5491195253926466,2.66205089262553,1.4997861186726968,4.575462190898314,1.2479985972656498,1,0.125,0
7.5625,40.12725870626138,16.268584272213545,15.725819606250274,17.45096238380249,14.14473633693166,15.500849825940067,49.218190763578384,11.352961473299894,1.0839156886634804,1.0467594315864588,0.8891548153289405,0.9581759658344902,2.1115700312436267,1.5564276381267041,3.1407061076583758,0.4194621740971112,0,0.0,0
7.6625,38.74122225971647,19.61982123493826,22.149907040756137,23.674666023789495,13.220845904576281,20.68425654983625,47.31118910517914,18.275876846338647,0.971590648816131,1.603204918027829,1.5272461611549715,1.7908599801371636,1.838490747651549,2.453509236582671,3.0043917453658366,1.421020218615725,0,0.0,0
7.7625,44.10394298105768,28.914273574024136,23.129472400137946,41.78039452788799,13.158920278575962,19.54718294880333,53.568962953174186,20.381860463168042,1.013521189727581,2.834951878822841,1.861017206611719,3.230641259041825,1.5459390309884855,2.2023128534344134,3.676952407018439,1.9427487899716487,2,0.25,0
7.8625,41.97266306872147,25.28714124998219,13.84723967210338,40.234767806394956,15.526464598325951,21.968696829943802,44.809551908719776,18.027457450885215,0.809918578801819,1.920960233821747,0.7340234197086335,2.984218359613011,2.129287578292468,2.586568593066355,2.4569022938227074,1.6200535413278012,1,0.125,0
7.9625,27.653532300130973,11.73725414385801,14.18698540115255,20.787421058242018,15.229413550922526,25.132912584397424,24.821355929697642,17.783666130482533,0.28578219555029066,0.34046717493547685,0.7165024992786777,1.4028587896539384,2.31453946634025,3.230966123880658,0.9841173628714545,1.4685193058423116,1,0.125,0
8.0625,51.352606192986364,41.292638233472886,43.84624334883976,45.96709300199873,45.25534096647677,47.54154953569584,49.0335113408129,46.80613591587118,1.597838324842159,3.1946761375180017,3.693308109113098,3.959428275486498,7.57003041064646,6.643443827200558,2.8167452214096325,4.634609604196806,6,0.75,1
8.162500000000001,50.3258377834996,51.107629637427095,55.53882451575959,49.37792770024093,50.52031424261006,51.019419685309515,53.25134341772736,46.968690529806736,1.4372085745471974,5.708723010650715,6.40763347277347,4.640179070234282,9.381002934506435,7.500627259885829,3.2333674721980596,4.777123650617369,6,0.75,1
8.2625,22.92107169657809,31.27769467033248,35.483290387534076,24.117450311473778,25.275265481269543,26.151162955727152,27.8829283740722,13.687111427286629,-0.2136982395665735,2.1701167258729273,2.6112828257652176,1.2943240453201132,3.179872443138498,2.874585409589555,0.5327014806228463,0.576258309082124,4,0.5,1
8.3625,5.834290900322249,8.432192327919683,4.138506289137085,6.987431279924072,7.147183191403524,10.793542568147522,3.3079805620479057,5.535290752822654,-0.7818218271206991,-0.3409506501556256,-0.5990396983027665,-0.2059671130597279,0.47032481201499204,0.8045119298973151,-0.8522839965860505,-0.4714238156995167,0,0.0,0
8.462499999999999,6.086453071627364,8.793859889984622,5.399983509131849,5.807826751331882,6.5099312374381,9.76538108921943,3.87616807645948,6.262170939617557,-0.7583112473792248,-0.1318351304204562,-0.396399332484226,-0.28082459104200347,0.3737547896919897,0.579103242685083,-0.783588104251143,-0.2582292737731702,0,0.0,0
8.5625,3.404878879438201,4.864271520041715,4.484844304504614,4.8748182171855,5.619764751684953,8.619310900156481,3.3171395682978977,5.78186028650352,-0.9077975294781515,-0.5592931468926601,-0.5004201393032459,-0.36916008712995807,0.17418303331690257,0.4175427884232961,-0.8708927684537542,-0.3463561211742993,0,0.0,0
8.662500000000001,3.6595804541595998,4.366324374113945,3.814140451182066,3.1095841526942385,3.395753481074777,6.420022431327511,1.6910036501098045,4.560253077111349,-0.885428074555005,-0.6987990760785165,-0.5039730501414439,-0.6687154830650447,-0.41237161012403306,0.06412754004392036,-1.0097168568991852,-0.464591991876736,0,0.0,0
8.7625,3.3983688999338635,5.360727350567348,4.208390568634215,2.2940957323706646,2.0676452411668844,4.0266692189808495,1.5542911964448298,4.347800318636247,-0.9030217534777607,-0.5534099473697072,-0.4550787907720612,-0.8019614956836721,-0.6933558105479827,-0.420296433335603,-1.0115332243131085,-0.5607797083023752,0,0.0,0
8.8625,1.4687479869838216,7.914564030942481,3.7397674245772765,1.9567823085727032,1.6215620009828378,2.040170908776884,1.8282416647115012,1.9580599358394817,-0.9999687533283894,-0.1561315655546443,-0.5632936724946045,-0.8632668537279784,-0.8124882678725649,-0.8434975131634119,-0.983622412776418,-0.9491392884604803,0,0.0,0
8.962499999999999,3.2512031900825042,6.88518900118175,4.415406578227871,1.5671896208877574,1.1185071172497092,1.6711136103976387,1.9341198898293304,1.5057745148795854,-0.9372823391808164,-0.354176637220679,-0.4915769825765237,-0.8956438307770589,-0.9170554009250904,-0.8912641369179313,-0.9633703397409884,-0.9649649737464986,0,0.0,0
9.0625,4.418997043076793,3.626248057668374,4.432628067474531,2.6806235577008017,1.947579689777738,4.0452174129006675,4.611601477616497,2.6667030028008067,-0.8613186448382826,-0.7448179274431957,-0.4777354633966953,-0.7461826782697236,-0.7456870035734517,-0.5708325611512841,-0.7836599552511636,-0.772559720718837,0,0.0,0
9.162500000000001,6.743854943310203,2.294819189199258,4.786008813638983,3.662593558213804,4.0184775363537915,8.372434489210661,13.013834031486281,3.3309231553621164,-0.7240957051074683,-0.9405242307395355,-0.4062030189985562,-0.5950135534764038,-0.33998692338214453,0.23942927995423274,-0.11877131419157068,-0.6702808668522549,0,0.0,0
9.2625,48.46168049131567,9.115625158575112,12.161701339857151,14.21752109917889,11.265307951111803,19.24194333321792,29.7085976279351,11.688939077944296,0.5948604854554964,-0.3183139256305642,0.4705237391740242,0.4038097044465498,1.1069578753535858,2.1363899932587125,1.2815314741341688,0.2841843869935671,0,0.0,0
9.3625,68.46589242132033,16.488174676556916,19.99666495988982,22.861991712726034,15.411482642519314,28.046837125322575,56.795218290437944,28.575830866755176,2.268382715480006,1.0538650482473784,1.4023700135202943,1.6687449528808358,2.3145492819823708,4.033045617865124,3.665502615777891,2.936332496152236,4,0.5,1
9.462499999999999,59.15328038807529,16.647490532262406,22.428903367773646,33.69168343898603,18.21467280264298,26.49626333679029,56.047440152963475,37.679402234604474,2.0447661755869966,1.0890097054928316,1.7076532715100132,2.978259128289817,2.6629760286197315,3.2182380650512443,3.6019366611824815,4.642206433311983,3,0.375,0
9.5625,60.74934048218519,21.387550942514448,21.78565520205059,32.47741697425366,17.594593967106775,23.70257786563096,47.42254121062349,32.24761532683796,1.9234809746925954,1.6080235579546698,1.7547491402237858,2.8710003820431855,2.4029927184356854,2.5540226696817383,2.7467308616319026,3.561439907527935,2,0.25,0
9.662500000000001,64.495343027293,33.8348717629434,40.480629601156245,35.13174225766763,20.238217197029684,22.7716104612065,76.04310206518208,36.33094288394653,2.401753190368618,3.5359984323148774,4.073566641422613,3.1103886773107594,2.7330461690315233,2.63177627443043,5.504275510177476,3.622412254676628,8,1.0,1
9.7625,47.426482401767124,33.77777629354404,47.225269618772835,44.637177322782485,22.440832336996117,25.483223705573348,73.91542110095088,37.6691251158067,1.540356991931143,3.4587869556484567,5.444884309029688,4.5292928534808015,3.3785207306533014,2.764357144760029,5.381850965142386,3.932934311770562,7,0.875,1
9.8625,52.15607483701322,32.7262795286199,34.24358631535886,41.21042231120663,18.520828969131927,35.78471830757538,55.43406675433804,25.373663946745996,1.4780935437195917,3.555489743404812,3.508326787873096,3.7104500776823186,2.874409615965594,4.883281505821382,3.5693132574892577,2.466045430128341,5,0.625,1
9.962499999999999,56.323113256276805,30.921670773638546,22.741411560418236,32.287918191933144,15.141281519075427,30.751369048736407,53.03454515363724,27.660995773314262,1.8174683806590581,3.3095454798181954,2.1078644847182506,2.403967346465219,2.2724745374396185,3.894755123056192,3.443201946729323,2.756304209019374,2,0.25,0
10.0625,43.684366034365596,23.785452797952427,19.826571828537546,32.42150864680565,14.279230973894201,22.54921802595494,47.808096108730815,23.730578395417332,1.2214270947782522,2.2954072622471418,1.6731102838611733,2.5197145707505393,2.0428484225762054,2.8376441036492674,3.261745152527496,1.8093185918827204,1,0.125,0
10.162500000000001,43.607792606753144,22.66613401032831,21.26668331015465,28.351627913522936,11.398092155314304,30.2656436553538,41.99037400742348,8.64547606086665,1.2720062777206425,1.991098422027833,1.6148771362842949,1.7922941587216363,0.9777831098613063,4.489623715120866,2.6005152740859496,-0.02848478984928642,1,0.125,0
10.2625,44.91574400061552,17.594690308763973,21.827776019992317,30.368368177629982,16.726901668518654,26.745233280130744,38.36126293974567,11.42815220839169,1.3830986293028766,1.0967390039046847,1.7421767725867983,2.284137829453456,2.0384195349469856,3.4809016354030264,2.0916322153371474,0.4075278180513701,1,0.125,0
10.3625,42.433347085462415,16.520274799785643,20.83243534491337,32.88965903117082,20.11772782063317,18.628729065538497,46.13311523626819,23.82934213337926,1.2527400597977179,0.9928364178663306,1.7508176958445472,2.7803032700212094,3.4506920847067097,2.119352757072864,2.4889716827056008,1.8823118114020803,1,0.125,0
10.462499999999999,48.12119024274509,26.768196316112906,19.467038501661513,21.5872955222209,16.143067982172354,14.718158839709876,57.37494806479731,27.361942884305265,1.5731571899551438,2.68960909866212,1.6097483028496182,1.3606822397727156,2.5990740395026846,1.3830133890524785,3.3854366832450364,2.5189980573476776,1,0.125,0
10.5625,44.98972445452539,27.475224282845396,19.174351157310326,16.596290253273438,13.523729648083522,17.158768478716834,82.42429733200467,22.45343024701889,1.3175594050090083,2.9469241138867415,1.6522524260915814,0.8315864265457529,1.961374931250722,1.757382862883405,6.227088107509169,2.0895602315888757,2,0.25,0
10.662500000000001,32.65846377401578,27.04424434389246,16.194016487948367,18.588497900532875,12.171009866684333,21.565574170493647,71.19577446796774,23.035582374933785,0.6636980087142744,2.7024819313421573,1.1585187560350803,1.0942493457247167,1.6459022540889061,2.7838097249686404,4.490180661891426,2.2785770584164013,2,0.25,0
10.7625,29.506489096169137,36.587274448997185,24.184494774353457,30.73904112577514,14.12040043906619,16.674995214121832,45.538670700295434,24.43194347697686,0.43834868499469465,3.7656062264569874,1.8212955841246972,2.27022039944879,1.9817774233706889,1.602249112929621,2.512772261294628,2.4988690276922334,1,0.125,0
10.8625,46.74058780866373,33.29066842300761,28.985450499235824,33.73231770976583,13.482992579148943,13.158178206419848,45.89045405621975,20.238740571542333,1.3304236289172193,3.149320414899877,2.729437742580071,2.543229276735734,1.7155947527917885,0.9088925204486209,2.866111807936851,1.817406304117427,2,0.25,0
10.962499999999999,55.279772158115,21.18696749041236,29.61918305283469,28.03101891609639,12.047233324328579,19.080718910592477,31.52631957895348,14.540843706079075,1.9893017257434484,1.7786109830972103,2.740007186693891,2.0291746595890534,1.5285030535004318,2.113899304090661,1.6758189102399845,0.9456133294723361,1,0.125,0
11.0625,51.610188888088516,17.23950486080285,29.50335331519132,23.313515597596215,11.245233640849655,18.171423440340185,44.267355197535075,24.621390253757696,1.6736448826721917,1.1587184548365308,2.8959196597674848,1.7525867061439677,1.4724532966247261,2.076602188389719,2.7883843427232784,2.0067822237687185,1,0.125,0
11.162500000000001,42.757408295295804,16.32764278934499,20.322485061064874,17.505814203588354,8.786160786155886,10.542456310860203,46.73177062847602,24.24443502723515,0.9925968012564971,1.0349980217050636,1.7720308583877165,1.045150010552137,0.7638894517118703,0.6729123445249082,2.9168412416116616,1.9005052538900673,0,0.0,0
11.2625,24.137324532560434,17.06649701963775,23.945595490447527,12.146725640523567,9.125570500165264,19.995523167237888,38.265514219613955,19.59300093676312,0.04721424638673111,1.285049667007662,2.116400886229848,0.31566488085548317,0.6874493283295269,1.9982856573889314,2.1620346324295876,1.3655696710009437,0,0.0,0
11.3625,16.71143816277534,17.0280445972636,30.47380841418449,19.280392454517255,12.132892862156734,25.600647926126502,42.02175099952099,18.3463984779846,-0.15030108076426468,1.2722780502988447,3.2287213430856747,1.0350837315395645,1.5535591098268517,3.3330818710044743,2.8331130273644805,1.0356547102821676,2,0.25,0
11.462499999999999,24.91406215672147,16.293728877812537,22.48754096581853,21.682574684568593,9.652012320771483,18.41943400370832,54.842063503068005,12.19965363381352,0.25077521379575285,0.930713820924256,1.7331807675768627,1.4052993368805504,0.8450153733159088,1.716006584982776,4.038592368006559,0.48642117702021537,1,0.125,0
11.5625,32.04499832305602,16.282063787156332,15.507066350616618,20.049229365587653,6.647259467880067,10.689357263799334,48.41296231391211,11.679840237058894,0.6258137612601089,0.8593752723846485,0.9654184372231965,1.228340874874243,0.26482944682215903,0.7216096439484923,2.97773798887703,0.4741833292428009,0,0.0,0
11.662500000000001,24.843836543625038,11.609037755843403,17.605277927055713,24.27164350854716,9.843002217571392,17.009154498976002,38.2735277795201,7.359915479422315,0.11157300122020823,0.15500907620999943,1.196382254423733,1.901667726872117,1.1329829678558772,1.5694129619716919,2.085943632066653,0.004714312586777981,0,0.0,0
11.7625,12.10098285044434,16.795985549687714,19.757226943675462,19.780447833469747,9.82145416578592,29.27879792563805,34.918456732761555,18.29569427910193,-0.43105837529343405,0.817840140496818,1.4188643162432846,1.2087450084229494,0.9525793251337394,3.8584222412274043,1.813942332362979,1.2104396084639932,1,0.125,0
11.8625,8.496062239242997,27.606832799900737,18.637088012296438,8.552337712628146,6.429015699139338,25.397208740800163,13.370266649224815,21.012818323555653,-0.6451460324886926,2.9691772550344275,1.43760077170129,0.007089893774638491,0.011895903614171744,2.6810394892770786,0.006916623193711874,1.7042770175330357,2,0.25,0
