t_center,rms_emg1,rms_emg2,rms_emg3,rms_emg4,rms_emg5,rms_emg6,rms_emg7,rms_emg8,mean_z_emg1,mean_z_emg2,mean_z_emg3,mean_z_emg4,mean_z_emg5,mean_z_emg6,mean_z_emg7,mean_z_emg8,channel_count,frac_active,global_active
0.1465,0.4764578861478055,0.7038478916154913,1.0229196922775208,2.7844641134241304,6.076645211047776,5.667955295014815,1.0788706716061465,0.819388180672333,-1.5957342682013365,-1.307654497916688,-2.4883915096838343,-0.8990183585358075,-0.8194274566111959,0.5614033739806648,-1.0324900230187226,-0.8429685484080011,0,0.0,0
0.2465,0.8606810675103588,1.174662323113547,1.5481807126091645,3.3623484697410295,6.530834754562483,6.282866597681475,1.2778845594259405,0.8753939422375723,-0.32857631914280555,0.0017129577706549504,-0.43725219982729013,0.17348874073912857,-0.4461905031338269,1.5453554567616385,0.01904622015204067,-0.3853728705608544,1,0.125,0
0.34650000000000003,0.8530364856877716,1.1215552703000853,1.7709367747659297,2.4095144677840032,3.359892123537203,3.2193647698341388,0.9226863263098489,0.4799446912158126,-0.3159786552561927,-0.17797598527339809,0.272204933147922,-0.723465150031527,-1.8372433643446202,-0.8883091343147573,-1.0890662436397356,-1.4187993704014181,0,0.0,0
0.4465,0.590496575382268,0.689181997753905,1.7864702323012687,2.0320825087604,3.8854789292541545,2.3646888973101285,1.2129831067992045,0.5351238846866337,-1.0688738918769356,-1.2386092579840062,0.32496229879617844,-1.0151765652345346,-1.5269770161817653,-1.2922773565480432,-0.23310320708137724,-1.2143063816529978,0,0.0,0
0.5465,0.6992559811685513,0.6300326042731724,1.7993046090975393,2.163127340176008,5.984209563552901,3.603154313895509,1.4016239535786943,1.245780846786913,-0.7870732338495975,-1.4299017019844626,0.35509379825362075,-0.8857103657307438,-0.4412095759358592,-0.3070983640238976,0.5437758461599927,0.5125888068361655,0,0.0,0
0.6465000000000001,1.1204549713124607,1.2315289554300122,2.1023984281321204,2.822780084310142,7.216094573231063,4.507133804367232,1.6531429087318201,1.718392288045166,0.5010186322435745,-0.0671408776248545,1.1065835885095932,-0.24862467766118093,0.1787891445129848,0.38065740824255073,1.2204408863398928,2.2372368495188524,3,0.375,0
0.7464999999999999,1.2059059674302204,1.248263400751413,1.8512535584161534,2.660103666891199,5.486408249493963,3.591517553422985,1.52439394880832,1.3217552201806906,0.9193237074201889,0.045681317837800536,0.26929805697990955,-0.4734654420407308,-1.049275973876444,-0.6129742214912215,0.649862987631171,0.6790224749358081,1,0.125,0
0.8465,1.0205078477012883,0.9672000484124547,1.2467910036948517,1.8114383898385207,2.2920690715568774,2.269570386448982,0.9945362619889105,0.5477832140276834,0.34013498998763436,-0.6023376152877695,-1.1375466730665516,-1.2552208494060464,-2.246131871830595,-1.3704311752379712,-0.7406457048097778,-1.1712453701647503,0,0.0,0
0.9465,0.8254130031272033,1.061356181533105,1.2273170851857196,2.4939811989722336,4.589902806110144,3.29020908121513,1.120005570622925,0.5519860546041707,-0.4300879164519546,-0.295921099084859,-1.1860421228255755,-0.6298862737303312,-1.2747050914853433,-0.5184644627684748,-0.3752151975240799,-1.1488106721366826,0,0.0,0
1.0465,0.5052938377890281,0.7209195188994532,1.20181543713152,3.375569471615187,7.540891433113147,3.7495211066578102,0.9461573885576146,0.6714664100544472,-1.3687745150947999,-1.2903660749949037,-1.248487321158977,0.3617276836931054,0.2943775994907888,-0.09696746227264105,-1.0336652065398337,-0.795859295643532,0,0.0,0
1.1465,0.5319056619147453,0.6919887558335374,1.5661843999800316,3.5857922484193128,8.852890958863387,3.4197357055613677,0.9078527080075672,0.8770081798357725,-1.3433706299927437,-1.3315385267823296,-0.4221999957323299,0.5826333529309471,1.0185847745024388,-0.384670155427378,-1.0756060601535882,-0.1668038984595346,0,0.0,0
1.2465000000000002,1.416597659758728,1.3381740491933494,2.021771833611262,4.325006825212823,9.457286751125793,4.009941023245436,1.4937949817645908,1.4107738344800995,1.0306744950656201,0.39143821582980926,0.8989387544810177,1.2969508293478538,1.3081825929101853,0.013178986466137764,0.7509148467138543,1.350082235594943,3,0.375,0
1.3465,1.677827184176446,1.376710509953851,1.7832105361312227,4.580578871623404,8.8605873684795,4.551961806900631,1.5874000120570793,1.4271168761928326,2.348299949797199,0.5793685121663876,0.17251856354042758,1.6093367084241725,0.9480682662371214,0.4755807322765201,1.03535650097745,1.3873071017668703,4,0.5,1
1.4465,1.1644689189360393,1.292906091638657,1.6092041726925428,3.902529463827134,7.478408934067136,3.68589685796789,1.0409305874111008,1.085598815740104,0.6453525318044706,0.34728199028252577,-0.20761900611777373,0.9102309005857399,0.283026401267431,-0.27107370673149417,-0.828844070910467,0.43883136727458244,0,0.0,0
1.5465,0.9682265694228462,1.4674776992024863,1.5031491316119006,3.4515360647159192,6.675507766971335,2.999615183760026,0.9037671769504202,1.1081757504920267,0.1607470655430358,0.8913275810419533,-0.6360314198066297,0.4473501269085315,-0.16363311772664293,-0.7240466698728288,-1.1184016851695127,0.512133386625198,1,0.125,0
1.6465,1.072600441374834,1.064136137506594,0.9603185822948055,2.5318526246036925,5.004275910174767,3.9321885504539855,1.3203476680971884,0.7782174366653224,0.5144336333916448,-0.43172672415031066,-1.9798348534395587,-0.6379046244311718,-1.0116827655641265,-0.0453525052285539,0.2717575237352391,-0.9203700793805214,0,0.0,0
1.7465000000000002,0.9653042548696958,1.2889736654025394,2.03253309280765,3.594263879517475,6.321427977395897,5.481883701317543,1.4076674445892032,0.5794259906154522,0.10344956663158154,0.008248357588813529,0.26277307125848853,0.11252845012693441,-0.4557462336843747,1.2333133847897098,0.6198185534559518,-1.4350222728887883,0,0.0,0
1.8465,1.0537893814027892,1.884413925169655,2.75931847676068,5.521611643759574,11.92553665980308,6.463045561314668,1.5533597340189398,1.0784944693594831,0.3372543822406227,2.0222768747539983,2.8339943518939203,2.482759833398445,2.233646238876395,2.091355236005326,1.0416896801210078,0.28170180134029316,6,0.75,1
1.9465,0.9535612491321781,1.7200372619026112,2.344771686608328,5.171940161147056,12.462819788357885,5.332437146806583,1.5212156970143456,1.122203486524818,-0.11481461871108872,1.5546660347078065,1.6682017897973163,2.0751319393805723,2.574200284879635,0.941539882442248,0.852092887852947,0.5593014277033589,4,0.5,1
2.0465,0.6834017308062288,1.435306025796081,1.7838592277176113,3.6354793609201783,8.257090770102636,5.726684386121445,1.192447735878589,1.0067966981991194,-0.814700128695544,0.8790796481291118,0.2782494267954279,0.5474146887423571,0.6085760480758916,1.18902031740089,-0.16033667747340044,0.23332999548551364,1,0.125,0
2.1465,0.6025987725087565,1.4061492370714725,1.9106772542727448,3.0992254567040933,6.392951213338163,5.752383570499541,1.2233824537455835,1.0816371719992024,-1.2222241014219395,0.7935912434442236,0.62644746782297,0.012872778789772665,-0.1848538084248496,1.2277195100577964,0.005087618815466415,0.4888348573084633,1,0.125,0
2.2465,0.5383774435717738,1.217588555012221,1.987532341946517,2.6584555879913867,6.372954462153187,4.648707413654303,1.167983053496841,1.1140773188459923,-1.4406567211062926,0.27537876831124763,0.8896091172456131,-0.44531950697914247,-0.1911331194817099,0.5152200488630327,-0.15703582271955546,0.6017152203144268,0,0.0,0
2.3465,0.9263900103587105,1.1386430556844769,2.1163468578085274,4.326478651297667,8.549266985811784,5.0004905344842365,1.265847805107481,1.1992591689365657,-0.10444081754932913,0.05900921813852526,1.2229214514820366,0.9939249269824576,0.7930141099653089,0.8535692320037681,0.11474176826161814,0.8652475840220494,1,0.125,0
2.4465,0.9480758709086666,0.9911500115941171,2.0502269080884226,5.001424469441147,8.55173586714951,3.771568651749707,1.2383423184942082,0.9776094781039703,0.043321691385402455,-0.38252084824105287,0.9927450179471077,1.9407146615281021,0.7552600826998102,-0.17487178706561565,-0.061256955834889056,-0.0008720081288493631,2,0.25,0
2.5465,1.2696974544996535,1.0210910332258845,1.5940974574567288,3.6080618100892496,7.816761602874904,4.220541994896509,0.7740793724604508,0.790277608471539,0.8869766356839418,-0.3220415534877807,-0.23018678423221503,0.493070030778558,0.43619888200063966,0.1562650667915179,-1.5753332200713168,-0.48429773232907947,0,0.0,0
2.6465,1.4869851846876212,1.0888460787638186,1.5835407482283606,2.420436376597588,7.977164303581411,5.277448709213954,0.8037204049600545,0.8353016994315842,1.850150535262937,-0.15199900135777322,-0.2551279083246802,-0.6647277475448341,0.5509507368094687,1.1321065986643797,-1.460171513202249,-0.2942276716847063,1,0.125,0
2.7465,1.2638461984905385,0.9067097428968132,1.797000314015674,2.050852526548163,6.907013022577863,5.183240258533662,1.1857755505742058,1.0144307920346072,1.149901146185939,-0.683707405391357,0.32740924224117757,-1.0593397156849127,0.024012053321225437,1.0534481495224177,-0.13798616875043537,0.1621101272072377,0,0.0,0
2.8465,1.3066578403397875,1.1210265668616257,1.6676066465955508,3.4385194518825757,10.889799987342261,7.164505777504649,1.4629750270648865,1.4533616392382533,1.2770035812237046,-0.12245337662809097,-0.07064459863787294,0.15661175930944105,1.6217929811056804,2.367799064912432,0.7440167943702757,1.571364855082943,4,0.5,1
2.9465,1.7545565224183992,1.6215682202698198,2.0409112258426916,5.140808528605017,16.219518061049612,10.944078894207127,2.06090301758819,1.9361091574919524,2.663832174240407,1.3500917254415987,0.8271070434932517,2.1209964234361673,4.477313030623993,5.504902592889625,2.495170107346664,3.0690839373407717,7,0.875,1
3.0465,1.679701834675425,1.5800711701777754,1.987673143333159,4.52383287196071,14.14729156980068,9.750919345015879,1.8789408660219606,1.6478951831741404,2.1757695621092044,1.1676463240931871,0.5153795385555567,1.1901017070003719,3.056081881507792,4.090181819374087,1.6367032239485295,1.7025565216854741,6,0.75,1
3.1465,1.0460410079498952,0.9711435064519331,1.013871170385305,2.019480085420212,7.099802923750858,4.871877034491239,1.1239268996514906,0.9399082750369024,0.159743655177268,-0.6428869443033111,-2.1142411250078395,-1.3482420681497396,0.026543279968000256,0.7032341358239245,-0.3347112461937155,-0.055508390312670644,0,0.0,0
3.2465,0.9221233202231353,0.531934096120911,0.8019130603254726,1.930272617210719,7.722236146670622,5.331249665866579,1.3746230208007695,0.9636031993694936,-0.03895861146879304,-1.6340561780919955,-2.4645485129692535,-1.4105156681716553,0.2967486473463745,1.083221811152488,0.48548449516027503,0.05297201370556298,0,0.0,0
3.3465,0.8888940722663768,0.5902229259176295,1.1876955325719927,3.822179633678021,11.085380937228896,6.184685482965592,1.4108425111349676,0.7417614340244928,-0.10459969465371464,-1.4874304828500429,-1.391811775128076,0.5832529885002584,1.9432872342267151,1.7929516268667365,0.6099975001686654,-0.6242560300583212,2,0.25,0
3.4465,0.7110608289390948,0.9357683989053605,1.3731974917399485,3.857962656735248,10.157779251291691,4.87144038522451,1.3733965966908743,0.878939841752705,-0.681830144375802,-0.61408982442888,-1.0322856152389444,0.7324976088141417,1.415734269610763,0.5348938508826462,0.3347389830380832,-0.2562780100227266,1,0.125,0
3.5465,0.5934900046194278,1.3593318766633562,3.64431712470979,3.8881422195250996,7.546416293247343,4.058234561357033,2.085758405864405,1.097048957222603,-1.0994515940059295,0.6006344077331925,3.8262331575827977,0.7107466971436165,0.35944109492760473,0.04067580990874102,2.3608984481163375,0.5056045765544689,2,0.25,0
3.6465,1.1606076339060698,2.1558397831602654,5.42039663242207,5.106005067117392,6.473827409506412,4.727858095882707,2.071376797445494,0.9987125984008834,0.3441899077890877,2.663037452709366,10.129148683355913,2.1167271495027915,-0.3358908775455308,0.6821296684557315,2.4217504109687313,0.19432380752506354,4,0.5,1
3.7465,2.2383080460670017,2.7881444003965945,4.989259767536268,4.79654196849842,8.619988311130308,6.155527233821637,2.2165780584993553,1.9289516864988074,4.035208548509799,4.620447698857927,8.781651108992449,1.8093533727350708,0.3017332495986167,1.6669846071150913,2.7962248890747996,2.39023717858928,7,0.875,1
3.8465,2.4625953143775443,3.0034389285724177,4.856524440592743,7.232801582232061,18.86859036928408,10.844259317063154,2.2827418591491737,2.716636701446314,5.028913857077136,5.156308254290398,8.099895761272386,3.6388399976629517,5.094220941590752,5.073745455594752,3.108946992288949,5.43573891433787,8,1.0,1
3.9465000000000003,3.1471852505812103,3.92510691336771,7.005918478796856,10.42162815226671,25.08068368050287,16.18459366085629,3.5810979320549623,2.99643638430089,6.900258676251188,7.522625483277863,13.890405417506697,7.341154922542147,8.602092765301819,9.582488148013205,5.9773405982054895,6.320454746871527,8,1.0,1
4.0465,3.545820170608302,4.208243523166718,7.116215118647225,9.194651058271065,20.117512161244495,15.030611892303137,5.790519635286078,3.8767061973784225,8.501727587100278,8.455029691866436,14.289312473302873,5.93188163783297,5.609726119064627,8.392297816982955,13.953216842020954,8.896487080199913,8,1.0,1
4.1465,2.7751967844812904,3.2677276019952197,4.385962067706116,5.99697574090244,10.287796413392341,7.578348656064834,5.5652001493736565,3.7546863247728424,5.944732194904025,5.734493516642775,5.739755600355231,2.9924622360809248,1.6445560898753024,1.9384913367401169,13.410159672040827,8.481818054289615,8,1.0,1
4.2465,2.364361954816046,2.9144050048043146,5.093106623774199,7.801093221249772,9.814886549534553,3.536143284675464,3.7257000004599394,2.639635054471975,4.704099900212751,4.886373290122354,7.307587719839107,4.711687286683816,1.4530946209216082,-0.3973965094271026,7.808833547059964,5.240287124846591,7,0.875,1
4.3465,2.0900854352956655,2.4797684318646147,6.037278200622853,7.3177639959941585,8.778403927054194,3.878303076781772,2.6572703702806,1.860252464742877,3.720388814617647,3.419120807611721,11.376407766202378,3.8954206819534143,0.854504162959868,-0.015632329637540583,4.348519695305682,2.3991527509510786,6,0.75,1
4.4465,2.473551784789783,2.6199925867910996,4.860914696132313,4.53167429894762,8.495468322264628,3.813206476592,2.6113094061402347,1.6262102416935027,4.828625828698297,3.656059345533221,8.416654962053961,1.387590498752906,0.7404842951023802,-0.07147482915384468,4.316698933609003,1.8276942539532721,6,0.75,1
4.5465,2.512202800093358,3.4789356595689203,4.933239995075912,5.352094232284106,11.454414251292379,5.826174166069307,2.9429579189525077,1.9610852204576799,4.6682649908295435,6.378090060323778,8.541653562143003,2.285278146797106,2.2519283947439757,1.3881705723551039,5.514226299584677,3.12947302812541,8,1.0,1
4.6465,1.405835532216858,2.859712070768364,3.8789816000830775,4.838095018192903,10.571140995318265,7.418092687879311,2.758942029051872,1.6241830505945125,0.778333817058283,4.272015676981266,4.872005889301892,1.718315196186615,1.6706994688480206,2.788020417435015,4.8166630075888826,2.096861364644225,8,1.0,1
4.7465,1.1434963798163558,1.4678984063113765,2.159886453897134,4.301600837036817,7.384025856125965,7.1168902092439446,2.3050236468720864,1.741796463537925,0.4577748340655481,0.7402811510497906,1.2668567299100746,1.2928739271902512,0.22333440035851432,2.4854837742803766,3.253860388323142,2.436338307170595,5,0.625,1
4.8465,2.029644679245359,1.7601943620743847,2.8744105330618304,4.086143583725029,7.339738433128014,7.340965181281024,1.5245311341957297,1.836569599540294,3.433620098835242,1.3858452773169048,3.144423525116183,1.0098569274892197,0.27202954160214055,2.688236786049015,0.8517517374690675,2.7976631113135615,6,0.75,1
4.9465,2.379715830736316,2.42489948876364,4.099085698168142,3.300503306938534,6.571851477357487,6.293733670118821,1.0247487227508225,1.4775914516778728,4.794266681277091,3.5176880147244045,6.462980467624208,0.29716924078014845,-0.1823815915952892,1.5865435563575168,-0.6857707989590003,1.651562344370829,5,0.625,1
5.0465,2.099384406183455,2.174561091279066,4.562935866103825,4.9594253265958335,6.609458368445695,5.208104173335806,0.7365967638860322,0.9871370645902431,3.789442360008249,2.753320860093248,7.910395604340809,1.8028408441973363,-0.19116625148829164,0.9078838915181222,-1.740640597961124,-0.2914353208783133,4,0.5,1
5.1465,1.6190695101217352,1.4762618418522049,3.6061562757530083,5.685649036198679,7.247280724708822,5.328493059408792,0.9664777608470375,0.4069435298942829,2.047006428924393,0.7336008760362889,4.985082703766677,2.6410769609525437,0.17812935847439357,1.0304376977219767,-1.1117257469838513,-1.6626247083010008,4,0.5,1
5.2465,2.1292378673133205,3.365765983186605,3.7963345829790027,4.964203895307751,7.240923949861021,3.958752890666162,1.5186524648809503,1.2209057129265297,3.4891639888854824,4.740004015510128,5.223701237069395,1.8944867806197174,0.17472877531271494,-0.009379297645995918,0.837308230047527,0.2221823493751917,4,0.5,1
5.3465,3.953292910793838,5.169019449586395,6.676492484345252,7.860995205302307,9.969813555997142,5.91793005351117,2.4116122823197905,2.592061662892148,9.454319716534,11.079992247531113,12.818541070761317,4.466055458388588,1.4585189854374188,1.403332342620245,3.5027326562199494,4.621955462717892,8,1.0,1
5.4465,3.974351194509636,4.609197910943276,6.848977679334961,9.19612475266373,12.465163372177468,7.552390155069717,2.9008958798741,2.7094158676247564,9.35758229493611,9.184000902633633,13.637212602085826,6.41110099784236,2.7786391947718307,2.9767256246060696,5.409997014130841,5.29738269196687,8,1.0,1
5.5465,3.041940537068644,3.5943282758692487,5.693638376557611,7.830608640992708,11.715730604416231,7.224194250848217,3.157295014222076,2.287437239315199,6.413163956444993,6.588874216050179,10.869686164955489,5.055901910413373,2.3651051374081824,2.6562913771172196,6.157314954402767,4.100363479106108,8,1.0,1
5.6465,4.712326726576442,5.197104715150592,6.5555651468262885,8.205896737331816,12.671663308956779,9.392836713830345,4.551759005897453,4.514591712742997,11.526629439670698,10.798263787613664,13.064428133312576,5.424117613263583,2.766091312872665,4.195389808451902,10.251792197415309,10.031876417586165,8,1.0,1
5.7465,4.356248442602562,5.168531317410642,5.448457640790159,8.645925601654476,14.05829366620391,10.328393268888972,4.922553642261731,4.8876298628008445,9.63110746173881,10.861912783998383,9.231710037790409,5.908801647684056,3.530196864039919,5.176009033447361,11.590762701382628,11.677649334901771,8,1.0,1
5.8465,1.6931647810040666,3.175957637013775,4.530914609072281,7.030856925888569,11.163330680234358,7.956106059076905,4.583908429618744,3.399642904974049,2.070191865110963,5.351933551118733,7.379369940038227,3.996067909719141,1.9756122346644762,3.2319468559684164,10.312809162296544,7.383131967266933,8,1.0,1
5.9465,1.5938370566134554,2.0147486717683876,4.194802150964179,4.387350312253792,6.810171118177649,6.787552003662718,5.847082742659785,3.846279662890407,2.0860284308485073,2.405543062172362,6.060851441842237,1.2769754811511322,-0.208498078873096,2.381850989321986,14.098580233514319,8.755880816175871,6,0.75,1
6.0465,2.0596715714837486,2.4314700524224158,3.62597008358666,3.8642361224773474,6.411884427172325,7.814608141048594,5.352362459150734,3.706101738206146,3.7122369822020964,3.3619929961574155,4.757067115922094,0.8443151637265808,-0.3261501579188172,3.166626691751981,12.258484145440988,8.289087052557253,6,0.75,1
6.1465,2.3106562546230482,3.3709429137531033,4.123109413414517,3.9232227976282252,7.688844181521886,7.0536717232737995,4.035697735908339,2.5731495720490414,4.525895437183643,6.114281086363767,6.374744862189086,0.8383089438916018,0.4384516929778009,2.254291085448767,8.909435986655286,5.11309397340938,6,0.75,1
6.2465,2.0355250039593282,3.0122196974882343,3.6047617825222495,2.905356311355442,7.870247736828518,4.076465959281116,3.996876385062012,2.610010097842579,3.5166303034410538,4.912803685385954,4.959683183907691,-0.2657248648295769,0.4856517835251959,-0.08168386001622176,8.7440443343497,5.210404615088144,5,0.625,1
6.3465,1.3655408973350611,1.9562275571865921,4.239893126655535,4.375032297862789,8.004385674311672,5.939151334931771,3.2721529917256555,2.379894935628149,1.4320080757590723,2.3187908373309134,6.726947923507062,1.0051126448860799,0.5066984019027921,1.1486621246377096,6.523807012492898,4.362976526562344,6,0.75,1
6.4465,1.0464679390080893,1.8757072145095295,5.102005754233834,6.740297578927112,8.777486558118078,7.162896131164239,2.8887773639332517,1.6727539317677773,0.4222230157233303,2.108271404942708,9.384399816291172,3.7988278168425587,0.8966228771633673,2.441102909194042,5.264964435887698,2.262643708606074,6,0.75,1
6.5465,0.9595636154642885,2.551466547230579,4.604868217317628,6.119978542021077,7.991346443468957,4.8440626273479435,3.520992013294842,1.9395933848635136,0.14971196329398018,3.7877903029715707,7.824001692291313,2.9399984137710113,0.4326401917415349,0.3367979429743338,6.988897533203088,2.954116780438844,5,0.625,1
6.6465,1.1413909591704015,2.8125996888423868,3.7591378051822075,4.774870820612271,6.228843612546836,3.52966145030855,3.6353379789927263,2.218372221021133,0.7205708404331355,4.668754915986283,5.706446532804344,1.7416294522305287,-0.34383572389361633,-0.48240006763899695,7.374791385080085,3.9891140343738876,5,0.625,1
6.7465,1.1904129101121552,2.1934811003447057,3.400704024114796,4.746587741511362,7.274301228254077,5.405663262198759,2.6581034069823386,2.1149622151045993,0.8899810939748352,2.839415666367937,4.681497277416704,1.755556491518674,0.2069417415414742,1.071816502619925,4.455760603009106,3.669958800224904,5,0.625,1
6.8465,0.900934951586856,1.409526858783621,2.486519333242054,4.3866456454026235,8.567014198039452,6.812954178373738,2.059779525399457,1.5809518083606542,-0.14281118509538085,0.4965618098715599,2.065846288454666,1.4358652285281988,0.8717969949074558,2.3872211204944374,2.5530445685756065,1.4881450125454498,4,0.5,1
6.9465,0.9608799429595585,1.7858553199518887,2.3262699328749497,4.677779506691179,11.034000836521098,8.26687582768755,1.7925707713669856,1.0334104270242597,0.008084933258336834,1.3270807902049553,1.6809577271467093,1.733149103999323,2.0310531641033753,3.5260544477603717,1.6188683029654576,0.11460225586389772,6,0.75,1
7.0465,0.9917179910514862,1.9895673016521047,3.2404402367008394,4.640440474773909,10.248171153888716,8.753712726274468,2.6126488800174705,1.3079640089504931,0.13915863324320282,2.1596030670573416,4.103725828451206,1.6152440540341728,1.5213789319300084,3.857745739422197,4.031268826719826,1.0919487524320555,6,0.75,1
7.1465,0.9120907913301572,1.3477209082556116,3.873633905893962,5.5809984378094635,7.607064848202938,6.834343529434262,2.6158668514021697,1.3032629056369482,-0.07418196608858667,0.4758710333972539,5.94456755686319,2.5402989520373125,0.2935822367076809,2.00771740458183,4.1974829165542245,1.1498141546598928,4,0.5,1
7.2465,1.0170837596466724,1.228100135728552,3.7398300312584047,6.984151837237828,12.353196225058168,6.573854622302419,1.9898631396454831,1.1573974820891602,0.30498143521142584,0.2331841147371115,5.5427833385163225,4.111528405570173,2.3259029312233053,1.8604505491521957,2.3781872667349884,0.5671566632549486,5,0.625,1
7.3465,1.014713212954072,1.0329896076044116,2.85309285566838,6.1477990487252185,12.22679814124178,6.461807938570826,1.647600622845942,0.8373552535630076,0.2640133671907995,-0.4035168456609552,2.9450562478160096,3.0430439152458324,2.2510630933360094,1.8514439143069692,1.0522392001164493,-0.6083181470441301,5,0.625,1
7.4465,1.1359131876001358,0.7275311444213123,2.021165803207069,3.685227502319747,5.932781677242736,4.116608486826932,1.047580454639751,0.8421302457273258,0.6480964439405337,-1.1072299640782652,0.8669557548544508,0.5257522424473013,-0.6351926657686571,0.031078778890487938,-0.6489616940867238,-0.45377735205656466,0,0.0,0
7.5465,0.9321492820223306,0.6048329126256253,1.4622303855795689,3.1157739490353187,5.445977633593157,3.577703192948201,0.8074112868153535,1.020458436620622,-0.21760673627981275,-1.547502369570936,-0.9449274594932312,-0.12843570852566555,-0.7689075891622619,-0.5303657721460221,-1.6724819695680586,0.3050942795928394,0,0.0,0
7.6465,0.9484819475521385,0.8510942305895753,1.085779686571724,4.081670826570752,6.969438114674114,5.918297739214624,1.69802615906215,1.4121587227537895,-0.20796171125170015,-1.0863634536366142,-1.6803139958565203,0.9259181479677152,0.07646631382990283,1.2245128335950404,0.4574877013467932,1.27209793091592,3,0.375,0
7.7465,1.1585373293927206,1.1931199528924925,1.3914052630859781,4.107913562013027,10.448786887559017,8.376360193283302,2.220216023284553,1.7641409354593385,0.6230451290036383,0.09749518818704235,-0.8176564579426245,1.0852513729768352,1.5456897935512952,3.6254533602884753,2.8817214884907845,2.4409867766635434,4,0.5,1
7.8465,0.8196796267168169,0.9721603906307993,2.080627783875629,3.941327965736431,13.534714444837583,8.469539870860903,1.564056418390677,1.360841838378983,-0.6423037565751412,-0.6008559229213462,0.8777095049084517,0.9358864280179598,3.2138441675345253,3.5644993589997465,0.378932169329672,0.9410198511190977,4,0.5,1
7.9465,0.706463741852266,0.8972047959255618,2.466741045195173,4.304785463584133,12.100474365708541,6.104051009665088,1.0296947192740251,0.8634657606739904,-0.8389418164165927,-0.783325574537706,2.1170375442429172,1.3611563062956722,2.452618080524485,1.3980742516139089,-0.7162718256080366,-0.20578679154000298,3,0.375,0
8.0465,0.9842293905615999,1.5828675886367343,3.1262045712072295,5.2612878731975075,8.425811013065958,4.450810457092873,1.3466908080832116,1.1296466099260352,0.18553961759459928,1.0862349040553776,3.733671296275624,2.248771672174757,0.7308997788662608,0.42136414480912365,0.4211580999861059,0.5546580473626295,3,0.375,0
8.1465,1.2775435041358219,2.3577940414295147,3.0682387391688697,5.124281404721818,6.052451161552069,4.754175320463552,1.5862038557627085,1.5945079317788666,0.9383725260208459,3.2690861195086733,3.561280997147284,1.9610056588193743,-0.4441670239094072,0.6964576626979926,1.161969832893835,1.9397272611330407,5,0.625,1
8.246500000000001,2.4686096539339277,3.9276746980347816,3.349731310131675,4.378660098676187,6.827467595579834,5.104381901738596,1.7383265856590455,1.7917913246896287,4.430718515135089,7.319390604304074,4.077186237146495,1.1656585984766417,-0.2739795907617244,0.8859979424519796,1.6686391233687028,2.6994575999941377,5,0.625,1
8.346499999999999,2.5916563504475048,4.025912533521615,4.066796711738373,5.268296288645578,11.616447474777859,7.235812236859892,1.646985752823413,1.4987738082402906,4.930139721018927,7.396881240513369,6.31159167103503,2.139846417153772,2.0384172074492737,2.544450697683673,1.353671563510586,1.7337682023784478,8,1.0,1
8.4465,1.5416331357595197,2.3311191921646794,3.7045533776824136,6.454940965523664,13.76759030079158,9.622447199759813,2.642078929554118,1.5606810113791123,1.3168232411934266,2.323990822596711,5.368835302085082,3.3215660486666683,3.3966320501190905,4.626104637494565,3.9558408641983864,1.89627349080843,8,1.0,1
8.5465,3.374365432805242,4.3054504923956145,5.352174807523348,8.44446723003432,11.157975795602775,9.24540930715732,2.6588493724298035,1.9622949922849027,6.0968034160742635,6.645665301836657,9.171860612813031,5.389272361694715,1.9454274839563104,4.266610987439092,3.9313163141643552,3.177129824041005,8,1.0,1
8.6465,4.575902515061639,5.481149305751077,6.515437471706063,7.655248998039844,10.427712110837017,6.446953637622889,3.369233433905451,2.661849743476474,11.939021346815718,11.763845835032992,13.004194780402395,4.460324235084297,1.6030990602874717,1.9231864585415732,5.434199376964366,5.168639604136705,8,1.0,1
8.746500000000001,4.167129778144304,4.906281180501089,6.481159533052546,5.914593103710152,9.150319441884111,4.39901413613875,5.1152316270716005,3.5402236321893774,10.692556287517846,10.278872684113,12.954600577351139,2.9465338365321827,0.6853277276672084,0.23409797922982795,12.076294949592095,8.021160816418568,6,0.75,1
8.846499999999999,3.5729622369075535,5.11058451747492,7.520281092516822,7.551785441962491,7.345322930042823,6.556772122981318,7.0728835072174325,3.8752572101775824,8.763341290411752,10.996364717596162,15.755701560301304,4.647970758789564,0.05125042612365572,1.71372893495564,17.892447299726758,9.145353213982656,7,0.875,1
8.9465,3.3718319644568444,5.167925243073238,7.765243806329649,7.617580574510645,8.825858069600036,7.597752247259685,8.15185317662031,3.7331303254252695,8.094476510642854,11.223940108850577,16.353146134218704,4.484643857119649,0.9450480772978274,2.920831785191302,21.28597436038624,8.632783268200445,7,0.875,1
9.0465,3.213590007225245,4.438331467116592,6.191109820379329,5.237754187770604,7.228102214098448,5.409253585380018,6.298662861225771,3.30857903873556,7.547921051306519,9.112931808360797,11.850983952814438,1.683705738297724,0.15274990857828682,1.0667067256918437,14.625760404605787,7.304844840617462,6,0.75,1
9.1465,2.7100398506974934,3.3574804230497333,4.2721794597902445,3.3294894772781287,7.644153272411906,5.529188299776073,4.097856537760219,2.901896730970929,5.780426588603426,6.015051550495887,6.802329283954983,0.30828059717034917,0.2639365031724771,1.0760653020530808,9.179775929087464,6.1234112185792835,5,0.625,1
9.246500000000001,1.8423593839761387,2.265362491057755,2.881631381783892,4.440751383134599,12.296469609589245,8.482880324144375,3.7778227261560784,2.339028718433305,2.6763619630174538,2.9178488325894354,2.989934717023396,1.4229872359150777,2.3902965121650066,3.488480927905438,7.977302543546602,4.147396558461451,7,0.875,1
9.346499999999999,1.138123098136623,1.2852813290543335,1.7654474350366314,3.878834985401468,10.900515619450477,8.08074093617336,2.6459198456219433,1.4866887761721905,0.7453507477457584,0.20343858944469878,0.07420876130325102,0.44969676595587293,1.1493464020974995,3.1707548109082104,4.414880527911397,1.6866104974399212,4,0.5,1
9.4465,0.9924142132166939,0.8974830609805725,1.4326029199534212,1.6361852597242024,4.52589105711718,5.761950002199766,2.0299480388975506,1.216119604232315,0.21691444563347936,-0.6749618527769884,-0.7374154953017089,-1.5948956798357687,-1.2608796956033448,1.5337235594332077,2.4578101455815,0.8186994236238877,2,0.25,0
9.5465,0.8671687613297537,0.9363900409776377,1.5690922863031906,2.6853732798933607,6.489537890648674,5.115074488873268,1.6057248241037698,0.9193171143614473,-0.16198009729465618,-0.5533458796358718,-0.3426325028206119,-0.6669792906377804,-0.23392428041955482,0.9567628204786446,1.0561454695923944,-0.2961043107143429,1,0.125,0
9.6465,1.243451211361422,0.825278008175604,1.406002437811527,3.9090850140225615,7.405949202602001,3.6030214170107437,1.1813807692779272,0.7516436620603254,0.9329241309848048,-0.8873150982091869,-0.781685136304483,0.8933770590254233,0.31776847790669527,-0.2942107172900461,-0.14495669813363685,-0.6246681743350504,0,0.0,0
9.746500000000001,1.7191510478970913,1.1906479757317083,1.554021635753637,3.3431076342056585,7.558757980583361,4.117929631366034,1.3230968733385962,0.9926256677036165,2.5943323377620247,0.02056913637397053,-0.3797008298599913,0.16070757707685007,0.37535947237910583,0.025390395085234597,0.26881369267661437,0.21922685120840885,1,0.125,0
9.846499999999999,1.7084995851949374,1.5710484384452092,1.7475403974599553,1.9690531630489039,8.84144428543655,5.345393255735736,1.3548624742033435,0.8669294951276457,2.5291554759061303,1.2504850603946556,0.2276669609860549,-1.0951897943224567,0.9787678350292274,1.1558181788851112,0.3779018346599728,-0.2695395089917881,2,0.25,0
9.9465,1.165060561359022,1.6467022135032534,2.0977907283561033,3.0004366610234925,9.052070449677768,6.011620708310918,1.039659424991564,0.9615043685641813,0.5525203762909295,1.4704341019181408,1.0898822673753312,-0.3039150873496432,1.1023611689311439,1.7071636588027552,-0.693002520398095,-0.04903706172479806,3,0.375,0
10.0465,0.8560111160156328,1.3844289974242128,2.45588288860262,5.316395915923541,13.926713844656497,8.644585634664306,1.462547779559399,1.2648722729481738,-0.22905647104789645,0.6426661702507407,2.1619455052924534,2.1441854459463796,2.9968371190604746,3.631171053877134,0.47547847624660916,1.0496198882679428,4,0.5,1
10.1465,0.8658430994599036,1.063531865742682,2.601558975779529,6.0174292611365265,16.442317417499694,9.279663728992569,1.629249675033078,1.3092022050691738,-0.19730061947772198,-0.17088209853973094,2.564037059304876,3.1434962584816204,4.439128372221839,4.114805200965934,1.2546914883753681,1.1939927639798906,5,0.625,1
10.246500000000001,1.0394929381237046,0.9668863376093171,2.318039636988014,5.8034184079975235,13.999174458686813,7.807833514488241,1.5948326322751778,1.1709636153314475,0.2574853711518902,-0.42773537118685134,1.681234818377482,2.925575295598614,3.3563542988568056,2.989109657570696,1.146217812068867,0.739740070395762,5,0.625,1
10.346499999999999,1.062707806619905,1.0088183991380193,1.6381778797606001,5.097522442475426,10.424277031509588,6.880889911308372,1.4624502109703417,0.8871603654718762,0.3052677740713363,-0.3339170287651151,-0.12548338307157136,1.9728930003560974,1.536165706563588,2.357878320098351,0.603018645375127,-0.14541958413656156,3,0.375,0
10.4465,0.744558427353441,1.1030925614049103,1.4324481607730377,3.179719457956945,7.3065841480052685,5.704847693447331,0.9346098500261983,0.8244941070248915,-0.6433286131310468,-0.04893141407544389,-0.6642260649743388,-0.032777171188271906,0.23166324509581063,1.4358206635451225,-0.9418399805681904,-0.36072095143930333,0,0.0,0
10.5465,0.6645548985404415,0.9736317224310179,1.4696448970016582,2.899867756069413,8.617035790771485,4.853540961342638,0.9951959540326607,1.2203292108985846,-0.8379224524865867,-0.4419882698793265,-0.5512345334437433,-0.18677730874080217,0.8657735291687818,0.7044886131096579,-0.9013866108739808,0.7931250882458005,0,0.0,0
10.6465,0.9522598687668412,0.9835060061578037,1.599682606845958,3.134407278222091,12.36946649153196,7.494654237691774,2.8751350523424435,1.7219059785799775,-0.07201117464028929,-0.5686046909773245,-0.2825758535704953,0.07861782999382182,2.5913591935810736,2.4702511368034137,3.9779642297854485,2.4253228751027645,4,0.5,1
10.746500000000001,1.8068427526290463,3.1197470262387017,3.553570429058251,3.2157128245186533,13.481876918553413,8.434297058944026,3.8774873623879826,2.4474937681219457,2.6004389203148723,4.089893115797264,4.058826929723974,0.07753069868775919,3.243580672315161,3.4941307560637056,8.465821922589727,4.5926969495279595,7,0.875,1
10.846499999999999,2.153192735620837,4.113736158126232,3.978957272263043,5.576409107002664,15.248141901408854,8.278637377973155,4.138937824318163,2.791532852761476,4.049513465332247,8.19714965369022,5.882437399146611,2.308207988502213,4.002493849380719,3.3349014669996215,9.30308895908667,5.811423462468314,8,1.0,1
10.9465,2.734224101029034,4.6275159255703455,5.026875872200336,6.923619176825645,16.9459092129477,9.433621284692952,3.825914442652103,2.5029346340434504,5.71898601974991,9.589702527079913,8.025456325252543,4.058992404964826,4.953553414604535,4.431512700639522,8.128575029750799,4.879788627850689,8,1.0,1
11.0465,3.310453977981334,5.337212819414588,8.224359934772473,9.868228440666831,17.893771691632516,9.631527391933613,3.985983753760789,2.7078752068040672,7.884463782638419,11.60728861896157,17.200447728508255,6.763468365630156,5.378333020327642,4.634182072326743,8.595913281593338,5.4402901211773305,8,1.0,1
11.1465,3.7264915378174464,4.776153966778642,8.042953397678517,10.308700176896059,15.122943623432906,7.465832809320234,4.2224914169522245,2.5985437034381955,9.192913193349435,9.924606501111507,16.50582828442584,7.320424629881627,3.4106830390979606,2.3371844087563285,9.523819823233119,5.006501450756609,8,1.0,1
11.246500000000001,3.955310628416025,4.820510933526287,5.4189899989108214,6.738330918190751,8.531611766995896,6.210090383883094,3.638022302915292,2.9378355544599994,9.95890444690596,10.104092870947623,9.866612724288974,3.643898616135171,0.53436210021098,1.3315668971949395,7.63485879541169,5.747157502073692,7,0.875,1
11.346499999999999,3.103593599489889,4.773241916031662,5.854480926759595,7.318228586809889,14.657896178431896,11.585045354176668,4.701308856509841,3.9742038733564744,6.786236162648624,9.943236973318717,11.22912425000535,4.205278552133092,3.1731121425443187,5.645442190211245,10.694212010878418,9.197574073481336,8,1.0,1
11.4465,2.740213467946836,3.137472616134855,5.501096563240472,8.375676177312213,18.130226375593928,12.242643027365693,5.000364288688678,3.7118828018939034,5.820997198897841,5.221552504471821,9.729149842263654,5.368412295094265,5.316835550923112,6.453422173441807,11.896142985600447,8.390074526028146,8,1.0,1
11.5465,3.990691764442506,3.7745547256817433,5.820694006518527,6.856845182320147,13.3002294774288,8.7205843963713,4.182014414077777,3.4864806832825734,9.82769822029587,6.374432263722747,9.948774706734321,3.5988237654034405,2.52482432916434,3.6844085129138207,9.352088813872799,7.7866540835882105,8,1.0,1
11.6465,5.281332271375948,5.715088856301278,8.348492649780145,7.923307573698106,8.925702828930621,8.746917678482086,3.7900733868475935,3.79819688494307,14.16079027161275,12.349609983589705,17.524815204133684,4.722804074481336,0.9907321272627417,3.8812590609387034,8.139630253941611,8.781731723153223,7,0.875,1
11.746500000000001,4.411391683962141,4.971585744651784,7.355021027854594,7.442460871195472,9.192763294153865,8.40740207119462,2.7559912143333443,2.7636868083126127,9.895035565545799,9.544167648603903,14.261320709984806,4.093664875424872,1.163944271225861,3.5896603186767293,4.341512777912597,4.52404119664916,7,0.875,1
11.846499999999999,1.7951099734458171,2.1205250140902825,3.4689138670684225,4.244864441467971,12.502823614599182,9.424952102039473,1.4021056360331836,0.885574355119674,2.5021239250143115,2.024264542363453,3.8252532894747096,1.2033331327364387,2.38726429830204,4.2535884322440305,0.3722652519168376,-0.7594694211159643,5,0.625,1
11.9465,1.460390512656827,1.0319975714424305,1.531613707736268,6.465731871647693,19.541087138655673,11.875303425660928,1.4159604663413885,0.45141612761318933,1.7196744056754545,-0.27489407695447293,-0.48709195249016146,3.2035082161454778,5.959682529467529,6.466580249776999,0.4883066494382631,-1.5889707998744584,4,0.5,1
12.0465,1.8620789774140698,0.8674127709482887,1.1725219870523673,7.243211121437952,17.99565477786133,9.869227395842337,1.4336084850173594,0.708444403992573,2.9302174982721167,-0.7492535230359022,-1.3857640463231242,4.296566736960797,4.996406939117287,4.471323050342836,0.5331145809747094,-0.7413820387357591,4,0.5,1
12.1465,1.6305039746718872,0.5561945201903015,0.9019818971177013,4.696982167480879,9.40358679846815,5.9293811122217965,1.1630616049628109,0.6483197719834461,1.9138007028575734,-1.6786933987258816,-2.1636062484075675,1.2133546597901135,1.0093398166474004,1.5396543819419362,-0.20041422968082828,-0.9714308712483357,4,0.5,1
12.246500000000001,0.8790002321728034,0.26269276155686316,0.5739902615607173,1.7968560754474088,4.831603056432548,3.8594481046003515,1.0424322876921186,0.34466370604613217,-0.1224383952581589,-2.5788685954247064,-3.473789776893638,-1.87839166407623,-1.5153404224752,-0.4932394171108022,-0.644930089423214,-1.8161378616028532,0,0.0,0
12.346499999999999,0.7770519424394411,0.03482041271888044,0.045731410296033954,0.161077819566419,0.8160351642723451,1.255346373446227,0.656667963789767,0.2501769852228408,-0.46540104848611774,-3.0414338122676567,-4.480971415763334,-3.005597610577728,-2.981319014469897,-2.177453062135908,-1.815713279209013,-2.084757748929818,0,0.0,0
12.4465,0.6088516495401222,0.025680675681829294,0.019411951097991247,0.10291136076863265,0.3272114630557378,0.8883050254983861,0.4506187096487373,0.19053993516862064,-1.0322100818779127,-3.047386811015495,-4.482520836480912,-3.0322577776317643,-3.145214346949029,-2.435225872076607,-2.455808138184091,-2.2735321519681886,0,0.0,0
12.5465,0.44456543907473195,0.04370961770735462,0.025325569536841803,0.10401718392129056,0.1980355662630371,0.6743076550785245,0.29908461539459313,0.13363202217032275,-1.5759706012200456,-2.990891236708927,-4.4597570955527,-3.0306541342879196,-3.2140781832569085,-2.61444038030894,-2.9434501149627432,-2.450481398942197,0,0.0,0
12.6465,0.3063266440655215,0.054683478470700035,0.026744454783518654,0.09400631813128148,0.07899313274299798,0.4627966331222721,0.17630977645258594,0.08707179435708097,-2.0336661651282455,-2.9572618046472794,-4.455738359623225,-3.0413047029892892,-3.2700324057627714,-2.7865408616122322,-3.33663235947426,-2.5950936777442486,0,0.0,0
12.746500000000001,0.19415492010206253,0.05769773206622141,0.025886054791959438,0.08078305615104092,0.04615472285686118,0.2939030120045255,0.08589392812796773,0.05069890591681831,-2.404805948344427,-2.9484545840803182,-4.4581474436656245,-3.055364979675217,-3.2809431363096677,-2.924182267017876,-3.6297821914398543,-2.7084715149618415,0,0.0,0
12.846499999999999,0.10771314501148041,0.055238261540589494,0.02332297142237521,0.06593563631549934,0.08113284900579944,0.16369696709030018,0.030877978809956075,0.024037828006265628,-2.692693395027677,-2.955486764325684,-4.465286241786439,-3.071076032705105,-3.2631354207729455,-3.0310077566378544,-3.7794346344320164,-2.7923322483647066,0,0.0,0
12.9465,0.04654979994230872,0.049368226827193294,0.019852831695094327,0.05124287347524408,0.10589652226050823,0.07125056075836252,0.03710767455106067,0.0087032790646637,-2.8934196055490524,-2.972147724952858,-4.474893927754782,-3.0865673453114213,-3.2495526703677156,-3.1059478139187133,-3.758846953448215,-2.831303276136477,0,0.0,0
13.0465,0.020938802511122248,0.04174212109891593,0.0160720942610525,0.037808147390641325,0.11395068396755255,0.031222406445581125,0.057760417603010455,0.012062977063951444,-2.9554320125794438,-2.993672348792588,-4.485316464710074,-3.10069122509805,-3.2454025256558143,-3.1300072068873726,-3.6834055212178134,-2.8214694745576363,0,0.0,0
13.1465,0.036484980912108535,0.03357988031427312,0.012387460543322954,0.026242739595430588,0.11047845466013292,0.05408659181831786,0.06839607838604136,0.018158545879321003,-2.905357392187503,-3.016613753464984,-4.49543916029811,-3.1128221418662165,-3.2471476559221575,-3.1119849997477886,-3.646581113470804,-2.79972243639896,0,0.0,0
13.246500000000001,0.05006869892743232,0.02571316877398822,0.009054739844620461,0.01679969013823571,0.09968736412198682,0.07468963069383418,0.07002875433031823,0.021084398690183224,-2.854261406218656,-3.0386505195824434,-4.504569289669138,-3.1227171465086503,-3.2525331724056987,-3.0928588064872606,-3.641123089800587,-2.789943493674428,0,0.0,0
13.346499999999999,0.05528339521226609,0.018655996084953882,0.006211922497166861,0.009482171034393519,0.08497319473076746,0.08273616369752439,0.06571659429541801,0.021362314947797487,-2.835981689464528,-3.0583654977783676,-4.512340587339947,-3.1304185746997972,-3.259833531344275,-3.085903015446874,-3.6552476940347924,-2.7890389006640492,0,0.0,0
13.4465,0.05444260892361934,0.012677762358981782,0.003907795757937476,0.004291525346721901,0.0688785638659734,0.08163381901846449,0.057830718659069504,0.019901392198827438,-2.8388341370536927,-3.075032289101425,-4.518640502795969,-3.1357499294361024,-3.2677840047848203,-3.086823740123288,-3.680896884913468,-2.793684973794876,0,0.0,0
13.5465,0.04969724659651882,0.007870417750062187,0.0021542291407678354,0.0018885096114958394,0.05315783539713518,0.07462266275768596,0.04824663632763808,0.01741247276066228,-2.854864492417294,-3.088433408527061,-4.523396094659047,-3.137688301929438,-3.275522937607667,-3.0926602738833906,-3.71190945071979,-2.801546295157063,0,0.0,0
13.6465,0.0427717966913324,0.0042096403796895495,0.0010834571722209013,0.0028791426314508377,0.0389149142862921,0.06429757114740753,0.03831845806674375,0.01445288493010154,-2.8781139538194007,-3.098714396887807,-4.525983709179042,-3.136735747862585,-3.2825145432025575,-3.10120172343182,-3.743909255718949,-2.8108476630144654,0,0.0,0
13.746500000000001,0.034979884467738406,0.0017340539372146676,0.0008989846043864771,0.004028520125809392,0.026748192878461273,0.05263931632292012,0.02894870140428125,0.011421821833323187,-2.9041525669999078,-3.1051890844542096,-4.5263797149132525,-3.13539649853313,-3.2884739923981505,-3.1108016599435784,-3.7740132828097086,-2.820337119446384,0,0.0,0
13.846499999999999,0.027240844090052722,0.0010922567745356622,0.001079970324908706,0.004525383338708883,0.016881674487713435,0.041036389923982834,0.020676633264863936,0.008582935636955141,-2.929921635021276,-3.10642840062327,-4.525888494528989,-3.1348419208232468,-3.2933049998161317,-3.1203215728968687,-3.8005220236749984,-2.8291972647399994,0,0.0,0
13.9465,0.020144660859406856,0.0017940901077723225,0.0012307173759270958,0.004497545573907219,0.009319179491821386,0.030381773961446656,0.013766315367976234,0.00609146131140092,-2.9534808010923,-3.10446190452343,-4.52546454372972,-3.1348715165667773,-3.2970102501231615,-3.1290376615499635,-3.822628064491054,-2.836953604736376,0,0.0,0
14.0465,0.014022323753058587,0.00231886441948006,0.0012934714113898068,0.0041325036816800475,0.004214763139702497,0.021178336689925414,0.008282649367139804,0.004021139282334693,-2.9737597386617756,-3.102851957533284,-4.5252885136366965,-3.1352623365403947,-3.2993529389896854,-3.1365490435036656,-3.840193246006672,-2.8433883389641568,0,0.0,0
14.1465,0.009010753863187197,0.0024933569857062605,0.0012793630086463845,0.0035755917788910163,0.002378048733094357,0.013637983136766155,0.004201066741718493,0.0023866813238971967,-2.990345969014352,-3.1023397902329277,-4.525327629668353,-3.1358547475029788,-3.3000485444512786,-3.1426970970188823,-3.853269002057695,-2.848479292503638,0,0.0,0
14.246500000000001,0.005127183451514992,0.0024146702052942263,0.0012163664310941172,0.002938349364729637,0.003363649014321018,0.007778568636129684,0.0016689164506625623,0.0011802233724980357,-3.0031986275637697,-3.1025649253617162,-4.525501369018492,-3.1365294099642638,-3.2996022541885095,-3.1474847018784113,-3.8603737701145437,-2.852227342810291,0,0.0,0
14.346499999999999,0.0024499965104538036,0.0021769968721067103,0.0011314253254553265,0.0022980500580077937,0.004455803192761167,0.0036625323947682992,0.0015352086991611532,0.00047553224503012854,-3.0116065933882314,-3.10324016749046,-4.5257343848055545,-3.1372051149006923,-3.299026529640872,-3.1507171250611226,-3.86056171172045,-2.8540652796583514,0,0.0,0
14.4465,0.0012850552953824455,0.0018540076539815588,0.0010442368565631499,0.0017185489411811557,0.00490649700156696,0.001751678461487495,0.002387787028002398,0.0005139508751655146,-3.014736228012073,-3.1041525834510137,-4.525972482919894,-3.137810299644057,-3.298792738394123,-3.151965866812065,-3.8576938127866676,-2.8539251178553395,0,0.0,0
14.5465,0.0015635863589465288,0.001502084928081223,0.0009694918869646357,0.0013054929874617208,0.004817906774422914,0.002262186223459733,0.002916113354611085,0.0007572718086455498,-3.013897873931981,-3.10514150782861,-4.526175680606131,-3.138225849382889,-3.2988372122837735,-3.1515901181151644,-3.8558532943821775,-2.8531234373226977,0,0.0,0
14.6465,0.002100119406994097,0.0011748164379674342,0.0009130333422025618,0.001120856587835038,0.004391104878258538,0.0031300303125719534,0.003036283475724701,0.0008999046518263276,-3.012045481655219,-3.106049584355493,-4.526329125053089,-3.138410165245883,-3.299050382698996,-3.1508358844216455,-3.8554507962984075,-2.852647531719729,0,0.0,0
14.746500000000001,0.0023805729622140056,0.0009196558277717044,0.0008728343896010747,0.0010718132929614602,0.003777509335251624,0.0035607692965353315,0.0028823020643893114,0.0009253995445227285,-3.01105831544381,-3.106747827198663,-4.5264384169076735,-3.138460368607757,-3.299355003930019,-3.1504611545731795,-3.855955608218526,-2.852564572845497,0,0.0,0
14.846499999999999,0.0023812174060950037,0.0007478776277991673,0.0008464232160324977,0.0010716233889610592,0.0030946972895131986,0.003566853780056577,0.002561667205164697,0.0008696242551008338,-3.011055022753396,-3.107215824735798,-4.526510265849943,-3.138460543799882,-3.2996919686986064,-3.150455633250547,-3.8569991430112696,-2.8527421934660504,0,0.0,0
14.9465,0.0022013985446117995,0.0006416324445449582,0.000829196376659256,0.0010855167577192447,0.0024877570086147853,0.0033005287170422277,0.0021586526721126802,0.0007651034048896411,-3.011662783508878,-3.107505687712302,-4.526557233614333,-3.1384459929477244,-3.299984998525849,-3.1506774738053087,-3.858303569783554,-2.8530726912380096,0,0.0,0
15.0465,0.0019187835351087478,0.0005812599792899775,0.0008171515738687561,0.0010984575756360722,0.002106714902110953,0.0028787032584066687,0.0017342241195657663,0.0006401097781071454,-3.0126119964568843,-3.1076709131688274,-4.526590095547811,-3.138432405173839,-3.300165421712111,-3.151026532455394,-3.8596719270249493,-2.8534643607211785,0,0.0,0
15.1465,0.0015997008927498117,0.0005510182952597997,0.0008101010280870831,0.0011066952975472511,0.0019374797567500315,0.0023891169787735532,0.0013338169999847548,0.000521611587417789,-3.013673560394874,-3.1077541382629073,-4.526609321240724,-3.1384237581739916,-3.3002464284727377,-3.151429725329383,-3.860953794426391,-2.853831031312258,0,0.0,0
15.246500000000001,0.0013317422809704035,0.0005381893043302433,0.0008066792343430222,0.001110049937484349,0.0018754037219010455,0.0019184444463473903,0.001025575131376502,0.00042723799518682966,-3.014543889496015,-3.1077896280568025,-4.526618665774856,-3.1384202353486383,-3.3002764410501872,-3.1518118601623173,-3.861910995930162,-2.8541205877801357,0,0.0,0
15.346499999999999,0.0011757046486385642,0.0005342710557142148,0.0008047477111644785,0.0011097982507821506,0.0018656804407544423,0.0015825615237779068,0.0008668795286292345,0.00036038072560908165,-3.015046961375629,-3.1078005113650384,-4.526623941896522,-3.1384204990992783,-3.300281165764383,-3.1520774340003044,-3.8623961049164826,-2.8543248785108886,0,0.0,0
15.4465,0.0011032978702461302,0.0005335266473583311,0.0008038283455426572,0.0011072448872639503,0.0018750634244030797,0.0014190538907826581,0.0008131567330557557,0.0003171428546744836,-3.015282920589189,-3.10780258478911,-4.526626453824816,-3.1384231789138544,-3.3002765745183513,-3.152207138155916,-3.8625639619468615,-2.854457033498781,0,0.0,0
15.5465,0.0010725231549139865,0.0005324903019514997,0.0008031810229914888,0.0011008688325883852,0.001886527440956725,0.0013525261479759877,0.0008004455245502493,0.00029118908261913145,-3.0153839051334375,-3.1078054761167233,-4.526628223062116,-3.138429871625951,-3.3002709599110926,-3.152260627512543,-3.8626042040744437,-2.854536611867245,0,0.0,0
15.6465,0.0010640324419268965,0.000531032577523177,0.0008031177507599932,0.001092767136007873,0.0018961870120272337,0.0013312496978064542,0.0008039620673615574,0.0002770051857561303,-3.0154118589404444,-3.107809538807853,-4.526628395878009,-3.1384383624563763,-3.300266227473713,-3.1522778393326853,-3.862592980673443,-2.854580244822949,0,0.0,0
15.746500000000001,0.001068653989650276,0.0005307210238336596,0.0008041394882980687,0.001087800274028909,0.001904906407000203,0.0013343124835978294,0.0008126121883867358,0.0002705855056044874,-3.0153965985638522,-3.107810406710515,-4.526625604410603,-3.13844356169631,-3.3002619586280035,-3.1522753486280175,-3.86256531654432,-2.854600058158779,0,0.0,0
15.846499999999999,0.0010795495456437825,0.0005321987472426005,0.0008062037270480996,0.0010882923318734031,0.0019168587261099172,0.0013491982264971993,0.0008228078535381637,0.00026826355150188147,-3.0153605654239493,-3.1078062912702804,-4.526619966014163,-3.138443046559136,-3.3002561109257913,-3.15226322542726,-3.86253271149186,-2.8546072561977383,0,0.0,0
15.9465,0.0010939466062151366,0.0005351344699180349,0.0008108778086138708,0.0010935188904618782,0.001932337071189323,0.0013693341713364147,0.0008336362198749483,0.0002677411677028497,-3.0153129599089517,-3.107798113098574,-4.526607212234618,-3.1384375732015855,-3.300248533478088,-3.152246818216176,-3.862498053361167,-2.8546088775059877,0,0.0,0
16.0465,0.0011098199248435795,0.0005398641215953672,0.000818382233740973,0.0011007374856966381,0.001948584382212417,0.0013910023089405699,0.0008442827252759609,0.00026836706041951947,-3.0152604012690096,-3.107784947032464,-4.526586716593496,-3.1384300066413755,-3.3002405779201838,-3.152229140145123,-3.8624639872790483,-2.8546069335217226,0,0.0,0
16.1465,0.0011281388693638202,0.0005473468114224252,0.0008286952631622859,0.0011115383239715935,0.0019712055595102695,0.0014155092341785194,0.0008569393941577328,0.00027027215107464515,-3.0151998622428717,-3.107764127599239,-4.5265585793904215,-3.1384187088049145,-3.3002295243774444,-3.1522091835335324,-3.8624235455939813,-2.8546010232217203,0,0.0,0
16.246499999999997,0.0011551886029047683,0.0005598002371401023,0.0008461242196043371,0.0011323728099584243,0.002009815563602755,0.0014510124710003238,0.0008759521023033205,0.00027486114984027907,-3.0151106240114904,-3.1077295477127524,-4.52651113345983,-3.1383969502085414,-3.300210679898843,-3.152180326307171,-3.8623629145889704,-2.85458681871744,0,0.0,0
16.3465,0.0011982238024193272,0.0005803727149960631,0.0008757664924876923,0.0011693588653363734,0.0020767802374764863,0.0015059376428438413,0.0009063597799042091,0.0002836960089701484,-3.0149689347201893,-3.1076725033976556,-4.526430556694339,-3.1383583883454222,-3.3001780793165056,-3.1521357539522774,-3.8622660865948863,-2.8545595025295722,0,0.0,0
16.4465,0.0012623173217773706,0.0006127450473347948,0.0009228901999746524,0.0012297746935264393,0.0021833880304655555,0.0015860295965415005,0.0009518045808634389,0.0002985009410486854,-3.0147579185163464,-3.1075829100068493,-4.526302679599244,-3.138295502583003,-3.3001261943273117,-3.15207077066328,-3.862121449670038,-2.8545138192701462,0,0.0,0
16.5465,0.0013502660092350237,0.000658905486199807,0.0009903146303841027,0.0013173337783108157,0.0023336315324647217,0.0016956417144565847,0.0010153037681975186,0.00032087127806940254,-3.0144684675938747,-3.1074550023972822,-4.526119514186577,-3.13820427018948,-3.3000530547336795,-3.1519818868503973,-3.86191946408151,-2.8544447843221694,0,0.0,0
16.6465,0.0014632982463128048,0.0007180983154892191,0.0010772810282501132,0.0014312709403379229,0.002529291513747098,0.0018363889242693982,0.001097924377935979,0.0003505038421424861,-3.0140960057612434,-3.107290777042444,-4.525883003884893,-3.1380854332235866,-3.299957725239965,-3.1518676024486414,-3.8616563200356246,-2.854353131079879,0,0.0,0
16.746499999999997,0.0015955351545092536,0.0007876544582958131,0.0011800463450257583,0.0015669957544198422,0.002761844632710985,0.002000581990310635,0.001195253433383496,0.0003859817191923348,-3.013659093856853,-3.107097294625522,-4.525602801632503,-3.1379435141052845,-3.2998441156289813,-3.1517339246230165,-3.861345505446766,-2.8542431551090397,0,0.0,0
16.8465,0.0017334179843130834,0.0008601804071550564,0.0012875496376147653,0.001709619062879592,0.003005889013101856,0.002171652286235202,0.001297181062121955,0.00042342550555523836,-3.0132018999441588,-3.1068946919752563,-4.525308425000409,-3.1377937148869406,-3.299724406701443,-3.1515941693500644,-3.861018839734037,-2.8541264766627434,0,0.0,0
16.9465,0.0018483139659617076,0.0009208448871043883,0.0013777699592488891,0.0018298989288823959,0.0032111272313432083,0.002313924889708119,0.0013824771285865537,0.0004551918080271917,-3.012818359182682,-3.106724108631976,-4.525059762784689,-3.137666572772963,-3.2996230761652185,-3.1514771512297504,-3.8607436492757836,-2.8540268635031594,0,0.0,0
17.0465,0.0018920182232973208,0.0009454043211833713,0.0014145153240478535,0.0018798203137685503,0.0032935821688830406,0.0023671489572093278,0.0014151213077244103,0.0004691794515815554,-3.0126712749333864,-3.1066544661074103,-4.5249576269472875,-3.13761335055166,-3.299582022591293,-3.1514330205505683,-3.8606374621759203,-2.8539826138325957,0,0.0,0
17.1465,0.0018135409391615614,0.0009079239465192004,0.0013587019977970424,0.0018067919168470684,0.003162186381845406,0.002267914777710786,0.0013566696100987593,0.0004519722323951192,-3.012938766835181,-3.1067621042563376,-4.525114760392214,-3.1376922213025153,-3.2996482919460264,-3.151516352713545,-3.8608300513443554,-2.8540377621252104,0,0.0,0
17.246499999999997,0.0015849455978088646,0.0007943138530846334,0.0011890500033947893,0.0015821550250464493,0.002767223163039775,0.0019814208726316837,0.001186066254735699,0.00039629422511389985,-3.0137227250560197,-3.107090351968353,-4.5255952649281435,-3.13793627337971,-3.2998486881058597,-3.1517584205279774,-3.86139558734431,-2.8542172467214812,0,0.0,0
17.3465,0.0012714075007267784,0.0006370085643377607,0.0009542582533209235,0.0012708278961427821,0.0022225155247812484,0.0015891959676717893,0.0009522079979123329,0.00031829640773627923,-3.0147667842991983,-3.107531781020134,-4.526241059905568,-3.13826471146134,-3.3001170318172472,-3.1520801993040415,-3.8621482261209015,-2.8544614642189607,0,0.0,0
17.4465,0.001394715002488864,0.0006959214684022558,0.0010445951475255189,0.0013933995529812524,0.0024405849715194283,0.0017437975712174718,0.001046849680703959,0.0003476186188593029,-3.014478517967542,-3.1074168155474093,-4.526067428752813,-3.13817400554857,-3.300041426931374,-3.151991105198046,-3.861933361128535,-2.854397649904898,0,0.0,0
17.5465,0.0028406497000353936,0.0014171450630417145,0.0021272239641165623,0.002837505642833508,0.004970404362546183,0.003551742949806086,0.0021321891621445977,0.0007077481685230678,-3.010353440688785,-3.1056857981651134,-4.523519020702678,-3.1368696845017285,-3.298973684023849,-3.1507201425698157,-3.8589388071188786,-2.8534339052302142,0,0.0,0
17.6465,0.0053408046203843665,0.0026672294872135648,0.0040020962994535645,0.0053369170095461564,0.009344557506183902,0.006677060752622048,0.004007029142035845,0.0013325744255816246,-3.0021737996505866,-3.1022421079863807,-4.518455520647888,-3.134280365151545,-3.2968568272613283,-3.1482007464081105,-3.853009089745797,-2.8515144119518214,0,0.0,0
17.746499999999997,0.008679817212248798,0.004337228573736562,0.006506674137338305,0.00867585625592774,0.015187106111891818,0.01085077640632146,0.006510820727998237,0.002167538982437289,-2.991111176977017,-3.097582120015949,-4.511604391395185,-3.1307770158358834,-3.2939934453742112,-3.1447936460587926,-3.844990450694023,-2.8489158307877203,0,0.0,0
17.8465,0.01284242396725871,0.0064190629027230705,0.00962908372331104,0.012838717581314633,0.02247138660483675,0.016053924855584035,0.009632393239949641,0.0032085153121110773,-2.9773327307402506,-3.0917785816463113,-4.503071325030493,-3.1264132353242915,-3.2904267552723754,-3.140550150217247,-3.835002388397192,-2.8456792270821243,0,0.0,0
17.9465,0.01777593258115476,0.008886333499007573,0.013329725479332978,0.017772678153493166,0.031105058251115,0.022220669320175235,0.013332227081334578,0.004442267480063814,-2.960970676298395,-3.0848872234048006,-4.49293835590449,-3.1212310408226047,-3.286191073132506,-3.135510958429116,-3.823140863382866,-2.8418358034468656,0,0.0,0
18.0465,0.02330106683288993,0.011649364598441765,0.01747408133577578,0.02329835790888968,0.04077427953618288,0.029126936734757025,0.01747586098091815,0.0058239285004595175,-2.9425969061133452,-3.0771489394877807,-4.481559755353275,-3.115411657645278,-3.2814345070907085,-3.1298521889606636,-3.809820544227352,-2.837519991843247,0,0.0,0
18.1465,0.029069299739100767,0.014533872882605197,0.02180071670880174,0.02906715342595855,0.05086903884210226,0.036337083723921526,0.021801889640251853,0.007266335075592404,-2.923351243594486,-3.069043738747089,-4.469641413001053,-3.109316139470136,-3.2764521729936344,-3.1239248809855558,-3.795867852312158,-2.8329995447084353,0,0.0,0
18.246499999999997,0.03451151582239582,0.017255294861768557,0.025882774152798986,0.0345098988622968,0.06039331607486104,0.04313972513252614,0.02588346328220267,0.008627191001687877,-2.905118381162124,-3.061365246569076,-4.458350395392233,-3.1035414031842885,-3.2717319998017285,-3.1183094894648464,-3.7826492472728637,-2.828717082186496,0,0.0,0
18.3465,0.03878757626304188,0.019393563862340337,0.029090141468059504,0.0387864255182426,0.0678768202971834,0.0484846921108088,0.02909046447956479,0.009696454194301386,-2.8907140004712306,-3.0552990914805984,-4.4494302081657455,-3.0989791778540114,-3.2680029123321286,-3.1138732065296932,-3.772206157672991,-2.8253338105218644,0,0.0,0
18.4465,0.04075216930546388,0.020376031676354003,0.030563835364022334,0.04075140724966042,0.07131522491101314,0.05094034641161257,0.030563897322084626,0.010187796161551767,-2.8840475376379175,-3.0524914521105004,-4.445301592225379,-3.0968675563760444,-3.266276968477641,-3.1118200901351365,-3.7673729834195044,-2.8237677525409595,0,0.0,0
18.5465,0.03897592012203067,0.019488021265517762,0.029231830800259297,0.0389754658236623,0.06820710596495017,0.04871996875962035,0.02923172016819143,0.009743877109158357,-2.89020139420748,-3.055082416799402,-4.449111579216826,-3.098816085510235,-3.267869866868691,-3.1137154592711,-3.771834524084529,-2.8252123549191355,0,0.0,0
18.6465,0.03160835858708034,0.015804308201900458,0.023706283641409198,0.0316081342849325,0.05531413222731569,0.039510469618906176,0.023706072061689062,0.007902085449150303,-2.9169697927385867,-3.066353969608283,-4.465686359706405,-3.107293107587078,-3.2747993148794454,-3.1219598426694484,-3.7912416605432706,-2.8314978463987273,0,0.0,0
18.746499999999997,0.01909307304701281,0.009546659626805181,0.01431986471435971,0.019092996116582606,0.03341260971016347,0.023866338660296582,0.01431966667911164,0.004773304087671704,-2.9629192570836027,-3.0857026716601283,-4.494138457612186,-3.1218446789953243,-3.2866942040935503,-3.136111737454876,-3.8245549618733254,-2.8422877275669816,0,0.0,0
18.8465,0.021787584423496608,0.010893693806757844,0.01634059279497619,0.021787503483356195,0.03812827448837652,0.027234506585526452,0.01634074693221343,0.0054468261342812225,-2.959181737332256,-3.0841293359492874,-4.491824494943859,-3.120661051636852,-3.2857265666099353,-3.134960608141205,-3.8218447620712346,-2.841410330883629,0,0.0,0
18.9465,0.05827950319666317,0.02913960450751225,0.04370947961032788,0.058279367239829294,0.10198911086037678,0.07284942045939674,0.04370970956776298,0.014569766864539459,-2.849500574327802,-3.0379445797374176,-4.423909567035948,-3.085926234859515,-3.257333212447613,-3.101180117517745,-3.7423252286105253,-2.8156549584606103,0,0.0,0
19.0465,0.11417691160104305,0.05708831707320739,0.08563253186620531,0.11417674613079863,0.19980952110471698,0.14272118486692884,0.08563274765843863,0.028544114351790353,-2.6621243022055356,-2.9590432648855414,-4.307885121300115,-3.0265861398418874,-3.208826845914012,-3.0434704920768723,-3.606476716046633,-2.7716548205382567,0,0.0,0
19.1465,0.18862041989402853,0.0943100912931026,0.14146517507986045,0.18862024852468903,0.3300856268149799,0.23577556868488264,0.1414653587742974,0.04715499919518578,-2.415581454976046,-2.8552277921401124,-4.155224358024304,-2.9485085726838984,-3.145003916355803,-2.9675382826553065,-3.4277321743034186,-2.7137610094725018,0,0.0,0
19.246499999999997,0.2822623441374866,0.14113107622639226,0.2116966373216273,0.28226218230536054,0.49395898006699995,0.3528279695001227,0.21169678501529055,0.07056549379907308,-2.105681151829037,-2.7247334691304923,-3.9633322864818545,-2.850366336805467,-3.0647795269903457,-2.8720927462808525,-3.203053186520074,-2.640989435213426,0,0.0,0
19.3465,0.3940840765402361,0.19704196517122552,0.2955629588032141,0.39408393372127737,0.6896470118256047,0.49260512893030284,0.29556307088181893,0.09852094316051081,-1.7349406842845585,-2.5686202909639992,-3.733767635105075,-2.7329566390065994,-2.968805337251216,-2.757909177309748,-2.934264804718731,-2.553931221056392,0,0.0,0
19.4465,0.5203951420765548,0.2601975186173968,0.3902962802679192,0.5203950229667074,0.9106913861489583,0.6504939542492283,0.390296360153784,0.13009872619247623,-1.315068532784691,-2.391818523429289,-3.473780368778606,-2.599987439391325,-2.860112343233175,-2.628593645060329,-2.6298557284373025,-2.455335787313829,0,0.0,0
19.5465,0.6537593036466024,0.3268796170817907,0.49031942208345536,0.6537592094776337,1.1440786841038277,0.8171991497825758,0.4903194745816286,0.1634397821738439,-0.8703257715971392,-2.204544133981208,-3.1983930861455923,-2.4591419733650595,-2.7449810509942796,-2.4916182660266455,-2.3074153425212334,-2.3509001816412876,0,0.0,0
19.6465,0.7818067139913778,0.39090333660536764,0.5863549977944483,0.7818066436563682,1.3681616699068364,0.9772584068917827,0.5863550281656396,0.19545164845555402,-0.44161095095156333,-2.024018873855924,-2.932930402587607,-2.3233723918684306,-2.633998936606314,-2.3595792980350883,-1.9965952733763936,-2.2502283015720805,0,0.0,0
19.746499999999997,0.8860535632040094,0.44302677228875925,0.664540149526925,0.8860535141556561,1.5505936740037252,1.1075669634284386,0.6645401629035768,0.22151337216850975,-0.090754893422822,-1.8762787512902965,-2.715678312919377,-2.2122598792967145,-2.5431722471795344,-2.25151988546675,-1.74222313453723,-2.167839409332751,0,0.0,0
19.8465,0.9409967152191993,0.4704983563739096,0.7057475251659637,0.9409966841413738,1.6467442067907705,1.1762458994050031,0.705747526221357,0.2352491692029396,0.09548465098015628,-1.7978561197624157,-2.600357704827833,-2.153279719758556,-2.494960103832352,-2.194160364600386,-1.6071986685927628,-2.1241061667039727,0,0.0,0
19.9465,0.914515850882287,0.45725792966079093,0.6858868855065238,0.9145158341554439,1.6004027088252426,1.1431448158814126,0.685886878305279,0.22862895986029327,0.00390026131018686,-1.8364208821552601,-2.6570672506184176,-2.1822835344343585,-2.5186686968766465,-2.2223672501309255,-1.6735977427011608,-2.14561220961954,0,0.0,0
20.0465,0.7650472459654031,0.3825236304861829,0.5737854376940269,0.7650472399783868,1.338832662159783,0.956309057514658,0.5737854255841601,0.1912618132989236,-0.5332211613346174,-2.062594443544609,-2.9896558446087744,-2.352384329210723,-2.657714190224553,-2.387794145578706,-2.0630130743192665,-2.2717403264109373,0,0.0,0
20.1465,0.4839366252000368,0.24196832016585063,0.3629524742457137,0.4839366254421439,0.8468890850393268,0.6049207805029554,0.36295246221893596,0.12098415994459938,-1.5907538380233164,-2.5079051931142224,-3.644486032180228,-2.6872939984641295,-2.931479395722444,-2.7135014038128293,-2.8297287906738227,-2.5200726649467593,0,0.0,0
20.246499999999997,0.43248629044195114,0.21624314205448422,0.32436471427126556,0.43248628638308056,0.7568510061592013,0.5406078641348131,0.3243647191891116,0.10812156993675677,-1.7922516731522824,-2.5927528567622784,-3.7692546465242605,-2.751106285354674,-2.983641466622258,-2.7755602954783654,-2.9758155648292965,-2.567388882513074,0,0.0,0
20.3465,1.2135541931920466,0.606777090235007,0.9101656380803836,1.2135541860497103,2.1237198353481164,1.5169427434946077,0.9101656479889552,0.3033885432204244,0.4316649422767729,-1.6562957861727918,-2.392192964941812,-2.0468148694855146,-2.4079325422457942,-2.09062090864237,-1.363466470946732,-2.04516349783495,0,0.0,0
20.4465,2.419588418994977,1.2097942047576937,1.8146913089230297,2.4195884129362306,4.234279730101278,3.0244855253612415,1.814691316284416,0.6048971007515678,4.540437314042403,0.07384508138823179,0.1519820418026076,-0.7456090976678683,-1.344287931959297,-0.8251687765312089,1.615411112196657,-1.080331775796028,2,0.25,0
