t_center,mean_z_emg1,mean_z_emg2,mean_z_emg3,mean_z_emg4,mean_z_emg5,mean_z_emg6,mean_z_emg7,mean_z_emg8,channel_count,frac_active,global_active
0.118,-1.1213195095365953,-1.1312774740271967,-1.4492887895913842,-0.8252822838709828,-1.1827001038421783,-1.2049456544978001,-1.450171419431354,-1.0556182131466045,0,0.0,0
0.178,-1.1145886014113044,-0.6836284604546199,-1.2991391040337186,-0.023841938517608918,-1.1852950140335927,-1.0477810392078064,-1.3974754069973903,-0.5768771499168399,0,0.0,0
0.238,-1.3168264010099209,-0.5877148210758519,-1.0587381034878776,-0.11209101828241637,-1.0658388505665128,-0.606981702336192,-0.8128044910639983,-0.4391177288218688,0,0.0,0
0.298,-1.2857695059668524,-0.8840891349804321,-0.7797100574725082,-0.7574476919801043,-0.8755284472430606,-0.27656154543354594,-0.2593424665074124,-0.5591094166013931,0,0.0,0
0.358,-0.8309358770012484,-0.9802618461266009,-0.40187023218659296,-0.61968984156748,-0.9304291858774069,-0.4789689377024164,-0.6819158879335955,-0.5053092137235408,0,0.0,0
0.418,-0.1538680935395075,-0.5902126331138442,-0.12906026571821796,-0.5827484239875971,-0.850187422469332,-0.8504757509371711,-1.3198311905129276,-0.2811746374311203,0,0.0,0
0.478,-0.08818647414768503,-0.29320732065248695,-0.5260710223649063,-1.065160536967827,-0.47023249554933305,-0.8895552124309787,-1.3701128137260719,-0.48034271522529837,0,0.0,0
0.538,-0.555629824060291,-0.2062461232692362,-0.97638913558045,-1.0129532989204615,-0.6579237135214576,-0.780846496215771,-0.8860698441366126,-1.1566686558909334,0,0.0,0
0.5980000000000001,-0.686400073650443,-0.11611103217756984,-0.6003954648263934,-0.7269839765354807,-1.1178602950561651,-0.8470055893893765,-0.47242716657842715,-1.3882546115646512,0,0.0,0
0.6579999999999999,-0.7045032761991227,-0.15805018548250246,-0.09180559122779854,-0.667289224852159,-0.9700653478483988,-0.8026914118009892,-0.6705470432065215,-0.686214314810877,0,0.0,0
0.718,-0.43594025973976885,-0.5467675038924059,-0.24268830424457502,-0.5239958261863189,-0.32180965286901586,-0.7421658907392419,-0.7685387088427637,-0.034402909117747855,0,0.0,0
0.778,-0.20710806919430194,-1.2466717408406365,-0.3182252289707756,-0.42645977952367625,0.2221606309030788,-0.7876279928395761,-0.8399960289290203,-0.5180425582097559,0,0.0,0
0.8380000000000001,-0.8568090854763201,-1.6097202240193766,-0.209381519208326,-0.189735465331479,0.2531908152622542,-0.6231957074330963,-1.144824542353316,-1.53490689787057,0,0.0,0
0.8979999999999999,-0.9568861428943025,-0.9512998184555711,-0.1034999161465077,0.22299181286369993,-0.08729802635466931,-0.5046984424955422,-0.6394318580888025,-1.737045970734921,0,0.0,0
0.958,1.8491211032794854,1.3008427168124543,1.0186278202435897,1.1482346173161084,0.4370255660476558,0.35522064798710923,1.712777447137712,0.7461071638680415,0,0.0,0
1.018,5.2458038787829535,3.5707139817510387,2.378788279738708,2.3852992907477444,2.2231846328175107,3.057537598911068,5.6056908690145555,4.746002496865674,8,1.0,1
1.0779999999999998,4.683347076579273,3.067677111562505,1.8444074707669003,2.469708685032892,2.977154032821849,4.952285467335811,6.330093696636094,4.762357055239256,7,0.875,1
1.138,2.077719079697886,1.1571895847171214,0.3344894331219915,1.5452800286556192,2.14230070621122,3.7472708522719507,2.9440933983036213,1.5030144249326896,4,0.5,1
1.198,0.6169968944623653,0.40589012889582915,0.3956086636193499,1.2685435079362712,1.3291660909173872,1.8547452935047295,0.848684755827592,0.09139812324652243,0,0.0,0
1.258,0.3234110283458077,0.7277409383001304,1.193706916010283,1.44441526687824,0.8388083948421751,1.0620808733127989,1.3093806289467065,0.636507819759388,0,0.0,0
1.318,0.668556570947512,0.901512771681462,0.5192168686793209,0.6250670462107152,0.16693544772812788,0.9621904995251085,1.8930165801337242,1.371570496823657,0,0.0,0
1.3780000000000001,0.6376513299628334,0.28724901360336985,-0.8562783230100037,-0.32580993229179755,-0.39588730685999957,0.8703025055511722,1.1460602460553535,1.039797252660921,0,0.0,0
1.4380000000000002,-0.4801615860861472,-0.4923880029931041,-1.004803254714761,-0.5643790383777609,-0.6838244996817134,0.3148577796128951,-0.37951716138292896,-0.31981377767583835,0,0.0,0
1.498,-1.475807125080139,-0.8836522155835905,-0.24404431553664754,-0.7294251127552273,-0.9356971831427399,-0.39309001194787324,-1.332131299254954,-1.0219192810384954,0,0.0,0
1.5579999999999998,-0.9948471493917338,-0.818797204513777,0.004844445520148742,-0.9675036456742121,-0.9209788499783448,-0.7465524712796606,-1.4045688379950416,-0.4496265065648324,0,0.0,0
1.6179999999999999,-0.016020474454528113,-0.48796830247545503,-0.3899315249228397,-1.392652075003796,-0.9275365513334597,-0.769019457679959,-1.1557978759041958,0.8385010335727867,0,0.0,0
1.678,0.08809197525698881,-0.5021004866452415,-0.5216398418108942,-1.587979470658446,-0.9873735270009458,-0.6064790868722477,-0.8973020026268669,1.3308758057690127,0,0.0,0
1.738,-0.18603090627489197,-0.6751559468554346,-0.35333357502264856,-1.2427776925684615,-0.9492568380462728,-0.2662314386592158,-0.7895436596411266,0.48604609349001815,0,0.0,0
1.798,0.21558440510231544,0.08282783490754216,0.3499717843956052,-0.6127146171400121,-0.8244463056753477,0.19844410053286268,-0.6091132803110416,0.19286056942430493,0,0.0,0
1.858,0.6854740198499104,0.9726050695429388,1.2422150123125133,0.31335540218976377,-0.44437542719597595,0.10242828344351489,-0.5029774060677424,0.7856368220838509,0,0.0,0
1.9180000000000001,0.404160601231113,1.194548627171555,0.9757622139477866,0.975790620457913,-0.06574501276394613,-0.5317590466135554,-0.3911738340521138,0.6744656026652419,0,0.0,0
1.978,0.28778336809750954,1.2991892288866265,0.1250548566945132,0.6076034680313595,0.12363909114828499,-0.7162770765167908,0.4388430995985271,0.5089074665051015,0,0.0,0
2.0380000000000003,0.7493222409934251,1.512398135871675,0.6646269282859804,0.346647641506211,0.47107469512614886,-0.2715788496608135,1.1312004562434304,0.874306368723493,0,0.0,0
2.098,0.293061534225526,1.7995479755756956,2.479892643526318,1.6595445106369018,1.4471744843002803,0.7107321587989756,0.7992847574869826,0.3184868375965714,1,0.125,0
2.1580000000000004,-0.04108918284505895,1.918888939182023,3.0161278909957914,2.9930159672028496,3.013134501832124,1.96021920047834,0.3824569404679001,0.07753841046698091,4,0.5,1
2.218,2.309669189532585,2.694581590878584,2.58487456341884,3.0283796912021153,3.7296508582386534,2.7733301167890683,0.2763330924732617,2.202161229017694,7,0.875,1
2.278,5.490350075051329,3.734530914045337,2.9293612241164992,3.033615693575324,3.5896818797041417,3.9979891336235056,1.5014523582941506,5.102092487648288,7,0.875,1
2.338,5.606670119273081,4.417483803667502,3.768266336876369,3.30147897205711,3.582846881865878,5.399407988709011,2.9839664280907954,5.982252630008829,8,1.0,1
2.3979999999999997,2.9385440601290793,3.8622913200811517,3.2456851628616867,2.48237509236316,2.4473755458190642,4.1368383614846,1.8564303226733998,3.9531572656360177,7,0.875,1
2.458,0.9519746388117638,1.0812398794370246,0.9051147467904249,1.3770285649635696,1.421725173633096,1.9620176489687957,0.5698635184400827,1.4469740548535868,1,0.125,0
2.518,-0.11681476671036774,-0.9833082611543768,-0.7379052926950417,0.8960600962190383,2.089062624396551,2.6749541690629304,1.1004040263038706,0.6151713769369365,2,0.25,0
2.5780000000000003,-1.3080667665438834,-1.0160191050480425,-0.5705725614176669,-0.18098690603593912,2.088593716914587,4.061166826825021,1.357138313119969,0.20434090004250663,2,0.25,0
2.638,-1.1293536839303229,-0.4539869468664617,0.3990789498982841,-0.508571525641487,1.3861101387570696,4.046299105651828,1.9230882814961447,0.44316866281565187,1,0.125,0
2.698,1.1024470889982176,0.8745790867883169,1.932160040619843,1.5242896637272825,2.1864074720720046,4.411851372439467,4.460402808241645,2.6506479088881747,4,0.5,1
2.758,3.720438123959928,2.580649892449849,3.5063730940977087,4.069770334264592,4.0684317849805955,5.536935462582361,6.473883118565381,5.267956228520474,8,1.0,1
2.818,5.457422286112032,4.023195914695083,3.5638801395672406,5.883177878469081,6.285043854649914,8.023408060388071,7.4472969390637465,7.795629705972158,8,1.0,1
2.878,5.255715931226914,4.171139156091059,2.245310427758169,5.549785632480571,6.5799631756568635,8.656333890916637,7.349468994802373,8.323868251655847,8,1.0,1
2.9379999999999997,2.0673348146166757,1.7065489490377261,0.4859600586312974,2.5440164479613325,4.093514875186003,5.183133634447871,4.780381972808953,4.172049158679168,6,0.75,1
2.998,-1.0537474764680048,-0.6257874621312683,-0.6668200328514923,0.10274616550814393,1.651492463922808,1.7367678997089604,1.9605857864017773,-0.14741876734433051,0,0.0,0
3.058,-1.7567776156924062,-0.9987596623352756,-0.9005582716117662,-1.0973833138725968,-0.010007480754657664,-0.1977721352824476,0.3620270410948819,-1.2843953308184546,0,0.0,0
3.1180000000000003,-1.0933280500723368,-1.055328642684198,-0.7687885736988233,-1.874934265781729,-1.1166510252180082,-1.1034110641177224,0.032747523188287594,-0.9507771903690881,0,0.0,0
3.178,-0.6665874610950024,-1.274424941077975,-0.6938361505000787,-1.8140245741140657,-1.37987841384399,-1.341275213841077,0.2103598781111675,-0.537334104162623,0,0.0,0
3.238,-1.072985047738457,-1.061770651192309,-0.7019632957657717,-1.2927298327161736,-1.1573505413833047,-1.3312130516988454,-0.27327068771894425,-0.6720909007731034,0,0.0,0
3.298,-1.48446139722021,-0.795899429471857,-0.5195182814958054,-1.017364277457199,-1.0847975243402204,-1.1133517917712485,-0.8386891012721952,-1.1794692606007204,0,0.0,0
3.3579999999999997,-1.388510296015017,-0.5797972914757262,-0.6979920197695679,-1.36343621990481,-0.9610163476334311,-1.0075607394211117,-0.8668079727702462,-1.2590034678787763,0,0.0,0
3.418,-0.885746357540731,0.1337489005618905,-1.1600424603648622,-1.3330731310269421,-0.41657502259889795,-1.044278349590663,-0.9471854775205385,-0.6261692614045161,0,0.0,0
3.4779999999999998,-0.5512187279795008,0.09922468050376816,-1.2217702220740085,-0.3588637371720576,-0.10805549908058591,-0.8718821020107774,-1.0897698501958244,-0.3234878794526364,0,0.0,0
3.5380000000000003,-0.3626687235267268,-0.7316779022487876,-1.111705567320999,0.46268986377239996,-0.3791451371780788,-0.33554731614924477,-0.9201316392307896,-0.5595981159844515,0,0.0,0
3.598,-0.3236061714331746,-0.8004141845137975,-1.2466382678085657,0.2569867841443971,-0.4884166121427642,0.13674566871335825,-0.9268642378686985,-0.635315101915548,0,0.0,0
3.6580000000000004,-0.7628206221373102,-0.8155777977247123,-1.627736462318466,-0.537505009038523,-0.24115735840533073,-0.12016714334505667,-0.748720606500473,-0.854808817185269,0,0.0,0
3.718,-1.0167674536195845,-1.0717608075124094,-1.5059003000810562,-0.7326239972498853,-0.27978832810290477,-0.8235060103606008,-0.36577922916331645,-1.2354485913919024,0,0.0,0
3.778,-0.2778196227523973,-0.44497422620253824,-0.2154551756602089,-0.28009964516490915,-0.45131246171315165,-1.0404631895135867,-0.5825051200841663,-0.9084546004551428,0,0.0,0
3.838,0.3288857162946822,0.26724336047380165,0.7357984938561399,-0.31101356903419686,-0.4346742649411424,-0.7950156708110567,-0.7385842010478862,-0.31623388980697004,0,0.0,0
3.8979999999999997,-0.11709094464578083,0.11065218361180607,0.6570548578362506,-0.9552474218662913,-0.6465345933602288,-0.5755851562491908,-0.24345463622211608,-0.500034052142719,0,0.0,0
3.958,0.1462015330335989,0.6726536409512284,1.085163762033633,-1.0047267634160637,-0.5951738002966699,-0.01583359300174832,0.6128642487694624,-0.4283891554759698,0,0.0,0
4.018000000000001,1.6031161607757298,2.484989254410839,1.9298583977753303,-0.43269509095634673,-0.007066190502282611,0.9756016566762922,1.4322102952235447,0.8623046569945739,1,0.125,0
4.077999999999999,3.6910453058723043,3.9193595060392368,1.8281784855652476,0.04747381146639403,0.28715700745142003,1.2411727889038466,1.3818563958942989,3.212033668174749,3,0.375,0
4.138,6.664179054162879,4.86770927945885,1.321945786141639,1.176218242910882,1.3623044784622673,1.277805075561568,0.41605498310636785,5.968433871655435,3,0.375,0
4.198,8.826173840555354,5.5277851282435515,2.416596012867954,2.9963507614246296,3.715433977594412,3.0386957217499866,-0.07245706575887785,7.545718202441079,7,0.875,1
4.258,7.550676655121507,5.049343217711989,4.590616204674688,4.747390386303336,6.289108192514678,6.87634845741005,2.742150995405082,7.215336265112554,8,1.0,1
4.318,4.631447019344947,3.95634766651904,4.798657529078926,5.902337557183471,9.006403978930155,10.808509110384398,8.772922999982868,6.730241041208353,8,1.0,1
4.378,2.965612237868038,3.3391520172398272,2.1054213243964712,3.6175007203202427,7.943500202723712,10.083359569863084,11.034738981300466,6.345120356004887,8,1.0,1
4.438000000000001,4.159363143198711,3.618827207644774,0.9275074149742562,2.7532747688719983,6.763454506377513,9.457485555244288,10.236789845509547,6.824969944276198,7,0.875,1
4.497999999999999,7.023869719952277,5.067854472803291,3.416038203550695,8.007639133621245,10.193200826001931,12.797308485817139,14.667932914415083,9.923517867598001,8,1.0,1
4.558,6.267887171494498,5.134073055140999,4.7418681189711585,9.942060301999101,9.798051793014194,11.125687819944845,15.949264707012688,9.78976522261443,8,1.0,1
4.618,3.808923899739908,3.0556544340635328,3.037615940447813,6.0965203367186485,5.344564015650547,6.0886061922592605,10.319015424107773,5.452846853792234,8,1.0,1
4.678,2.123223027229466,1.2051824019218746,1.0643037316789472,2.275421769259947,1.8665146795834093,2.8786546790351584,5.332274737355696,2.1481306009292624,5,0.625,1
4.7379999999999995,0.25638844744412953,0.18766585583098103,0.3253486711048959,0.14284090868306443,0.12903708558179808,0.8077734288119118,1.5430632127710642,0.18230408729382355,0,0.0,0
4.798,-0.4071792325375037,-0.41748644304136334,-0.11370633732867348,-0.7632722222856981,0.0009380817441334057,-0.18165815944445643,-0.14884050188296757,-0.7224186829372101,0,0.0,0
4.8580000000000005,-0.0887407013671127,-0.41347415296653617,-0.9043413861813775,-0.5683098275392763,-0.06667879669429135,-0.5334369652549407,-0.25745103295001365,-0.9388513335846606,0,0.0,0
4.918,-0.4150412162477302,0.11555496909140701,-1.268598767168262,0.3741006111440985,-0.5770154730676347,-0.39609193672929743,-0.4840930062843459,-0.7337211569958079,0,0.0,0
4.978,-1.4923936568781508,-0.17154587726828077,-1.106077221676935,0.38384877247362675,-1.0378488970553545,-0.6646055326105433,-0.8977278578555749,-0.010736686465316328,0,0.0,0
5.038,-1.959330534553632,-0.8607606582849048,-0.9716072329183595,-0.40975993458972826,-1.0960331950711952,-1.1500105674793268,-1.0356328211011754,0.6540685012320305,0,0.0,0
5.098,-1.7744393652106607,-1.063531737950795,-1.0139911416754588,-0.7527233588171464,-0.9244593114095084,-1.324316787711144,-0.8477241927508966,0.2068539188985965,0,0.0,0
5.1579999999999995,-1.396641118511378,-1.100856049223819,-1.1177844118869376,-0.3366006730922733,-0.8469765698932245,-1.2729919404375547,-0.5368478360015582,-0.8405183225101226,0,0.0,0
5.218,-1.1670308086790462,-1.133168390739941,-1.0333930159473332,-0.26149071272485075,-1.0796290099482537,-0.8126402040127583,-0.43545986857338326,-1.2894945811768734,0,0.0,0
5.2780000000000005,-1.1246203981464558,-1.2238254949467369,-0.7144341414773011,-0.8255331078475088,-1.015536179564397,-0.30173721336103293,-0.5690725845192749,-1.2317132680081773,0,0.0,0
5.338,-1.138130697164981,-1.3323291645442403,-0.5861518773518674,-1.1897488650453518,-0.3427553009425972,-0.37692459868200956,-0.5481295341186456,-1.0271443443120802,0,0.0,0
5.398,-0.8943649668986859,-1.147467444108446,-0.6050260520807733,-1.4161563375798314,0.06006817969528679,-0.6815045394860832,-0.10455768292764743,-0.882039226319034,0,0.0,0
5.458,-0.22559805850462075,-0.7135873514345709,-0.5558276848961453,-1.63932822190746,-0.42387806273903667,-0.9709921374639934,-0.0661026858092207,-0.9002158850963897,0,0.0,0
5.518000000000001,0.26919298692648574,-0.4284637277242435,-0.30296187220251036,-1.565569468012751,-1.0058072600033257,-0.9076900502841724,-0.19711300641791504,-0.8067818046884329,0,0.0,0
5.577999999999999,0.4154085788132682,-0.6110893743819861,-0.040664206332138735,-0.6620377581972726,-0.9364361939363648,0.07242981694540102,0.5130552255292956,-0.09622319995260624,0,0.0,0
5.638,-0.5133790813670048,-0.9484098951226038,-0.2705566416054535,0.44400296338773426,-0.36368199503825904,0.9977280704915957,1.2675597485597583,0.48312547167154835,0,0.0,0
5.698,-1.883733166485522,-0.9352762163511118,-0.6623580303459987,0.16510911005914433,-0.10181469205165233,0.8029082834073141,1.3033185542960342,0.4409358441497953,0,0.0,0
5.758,-1.5778632985326368,-0.58083440014636,-0.16408117819149617,0.16945405137297706,0.8318072450715985,1.2273154917347662,2.252314076366351,0.6619247052380303,1,0.125,0
5.818,0.325638279114044,0.06813469901215814,0.4402654677061634,2.014030898380716,2.907114265704059,3.2707357983885026,5.771417165404067,2.110978571415994,4,0.5,1
5.878,1.5475103299333874,0.3559956948314888,0.4390787936590061,2.914901012535019,3.222880266834766,4.354890949170958,9.865685304718639,4.720596074218319,5,0.625,1
5.938000000000001,1.8063864356911645,0.18733417279613274,1.0180562278121492,2.519656282182598,3.290502895729796,3.8827311265139213,11.436350856031014,5.8337615711044855,5,0.625,1
5.997999999999999,3.2736158822480124,1.3659375608425661,1.9000662502418255,3.101621886467314,4.730924458954147,5.878756470222382,13.281078694280716,6.92399147804623,6,0.75,1
6.058,5.005314936128993,2.9836131022598598,1.868275853192818,4.077783364372794,5.150355945236183,9.097543278671395,14.301832117416234,8.616938239715342,7,0.875,1
6.118,7.561117282483324,4.280485790366719,2.757032524613237,6.3534431041968125,7.505631254039009,11.396014133854282,12.519529702301677,11.14112030144179,8,1.0,1
6.178,9.774886149284226,5.482354484595348,4.697630390524746,7.783134729525421,9.969725625601946,12.604321728711938,11.495268205093994,13.672507843085542,8,1.0,1
6.2379999999999995,8.506093780962786,4.641413386966019,4.5118622633149,6.305218504129235,7.9676090177910135,10.463388992746674,10.465447643237033,12.721718697925198,8,1.0,1
6.298,5.893664192524834,2.899889085744879,2.885792468216558,4.541371453066673,4.259663075082844,6.322097778798489,9.071717331561484,10.25507756734027,8,1.0,1
6.3580000000000005,2.5775280770972353,1.6191577843164238,1.1256986606709867,2.3632611655833395,1.3476492724684122,3.224714910365394,6.6094990216648855,5.894141162746241,5,0.625,1
6.418,-0.5954709913870079,0.5034658093290236,-0.46269084285389567,0.3865366213471342,-0.3250827243434477,1.4374041810575842,2.907498063652284,1.1266511757168878,1,0.125,0
6.478,-1.6762311160688146,-0.15992523798836103,-0.8275095933389168,-0.47327525311169394,-1.0448386631116424,-0.0757807504804071,0.66067666288225,-0.6334159746751332,0,0.0,0
6.538,-1.512840915117993,-0.5972461527170665,-0.5001631215768092,-0.9402093379094115,-1.2062197797073853,-0.9597495349530015,1.0352955620114939,-0.32404114100082887,0,0.0,0
6.598,-1.2102739048313074,-1.0565647455895895,-0.4302976408933983,-1.3886871417990883,-1.2379266424354902,-1.1528936420852018,1.346861357201118,0.24474106045106706,0,0.0,0
6.6579999999999995,-0.7294851209496559,-1.3144974174070112,-0.653075013679413,-1.4328388348462766,-1.3245888450839314,-1.073516359246646,0.1120356615784155,0.17770628113122247,0,0.0,0
6.718,0.21493314065893995,-1.2724729948792055,-0.8751090108289091,-0.9061862983302257,-1.4123167716798823,-1.0212331812225908,-0.09319052083917041,-0.3149811905465992,0,0.0,0
6.7780000000000005,0.7427479350213507,-1.3571459712844403,-1.0961229373792787,-0.8796417030479361,-1.1565519224611764,-0.8772882826639904,0.49678982687947504,-0.7281155775671263,0,0.0,0
6.838,-0.028512475966586643,-1.3007665896719287,-1.2378783297105103,-1.5621282050942387,-0.5467265659706182,-0.6467559617711715,0.102105720351881,-0.902891420698667,0,0.0,0
6.898,-1.0097855330591299,-0.7222073391569696,-1.1464962063071384,-1.7946741024606345,-0.15761328350502593,-0.7380296643602698,-0.895341319517322,-0.4750897003812016,0,0.0,0
6.958,-1.5040103346517828,-0.3141232604336985,-1.0338696600827302,-1.3970149868744475,-0.36535894329207186,-1.1224330544203889,-1.5522626678555234,0.05297942785050638,0,0.0,0
7.018000000000001,-1.7018198602590762,-0.5178645117315307,-0.8954339929446432,-1.2294844258356954,-0.7421109597946999,-1.2065595068496666,-1.5226968527979539,-0.11192552748895135,0,0.0,0
7.077999999999999,-1.4699179996466458,-0.7870611766279897,-0.939928023314653,-1.5280330976466079,-0.4140487953408212,-0.8802953251296769,-1.0162070206158198,-0.06464926875091005,0,0.0,0
7.138,-0.8472468344929709,-0.3038177172438478,-0.9819365256105251,-1.5027385607395727,0.0026196712962181143,-0.6644308949066615,-0.7253562448138974,0.949018817958935,0,0.0,0
7.198,0.6788309152073899,1.2671846993500029,-0.20840492957538306,-0.9489551124556154,-0.3719196934857442,-0.24965067328482257,-0.7333267886557612,2.477959644696217,1,0.125,0
7.258,2.7054438782462182,3.1526847468648955,1.2211247689905773,0.22500904590854096,0.26178243829103126,2.2142554449734426,2.1878000411433907,4.474048928734796,5,0.625,1
7.318,4.59715807877967,5.295912779336645,3.748036043816768,4.019895893580259,4.183876509250345,7.283278403120061,11.442173486628475,8.561142247645831,8,1.0,1
7.378,7.5378099366635,9.623398593434873,8.871548339011584,9.687234638940069,7.927671647409727,10.061770983795023,20.730903328206836,14.179344687800906,8,1.0,1
7.438000000000001,9.67044249069463,13.098366539789227,13.09325037524733,12.021956719056647,8.114182610677572,8.709401903895573,22.240346858386005,17.41705331748712,8,1.0,1
7.497999999999999,7.494720315430559,9.701666934168921,10.573905240645768,9.606420832707432,7.787046758041922,8.320783661987678,16.00780420267456,13.270473544761588,8,1.0,1
7.558,4.71489822283397,4.532132110294294,5.432379561111478,6.272253040514555,7.251780453483822,7.878392767496325,9.88462052140902,7.815775133442995,8,1.0,1
7.618,3.914349803116188,3.443922080139929,2.853418249998382,3.9041113893231434,4.986880700415187,6.1512225662901185,11.10094190296464,7.835738918955997,8,1.0,1
7.678,3.123727847233487,2.688111910710252,0.8113929158176907,2.3192305631195134,3.4376673113145952,6.2053740591159405,13.258273989751947,8.26250909284216,7,0.875,1
7.7379999999999995,1.9535278997529473,0.8309183880023602,-0.7117227848013706,1.5430532938456345,2.4497322421988135,5.236423978574963,8.77363519750409,5.216901745005045,5,0.625,1
7.798,0.243292632278841,-0.2647842297033453,-0.7694285761940782,1.0444047250924582,1.182043651911256,2.0394506873722054,2.589178497098744,1.1637251932770403,2,0.25,0
7.8580000000000005,-1.0168836271929254,-0.25871421659412325,-0.47157586013308905,0.659964339253501,0.8934616799531763,-0.15689821077985053,0.2894292442067767,-0.044027901676035354,0,0.0,0
7.918,-1.2377052385127116,-0.18968844016416053,-0.6520720655516431,0.4243085890911798,0.37018838524175607,-1.011486904984834,-0.36889944396042734,-0.0026845628123449337,0,0.0,0
7.978,-1.2189113903581865,-0.5460273571730238,-0.9839545436906104,0.17670173376513396,-0.44365957087173563,-1.3127365538096691,-0.8228194170957305,-0.2710006309944923,0,0.0,0
8.038,-0.837118162798019,-0.7913842431967789,-1.0768231476081562,-0.5608959912297098,-0.49832432404853005,-1.3274205223562638,-0.8024430686328725,-0.705510549151635,0,0.0,0
8.097999999999999,-0.6007511285570202,-0.998066664150841,-0.9994990695521476,-1.5540708136492232,-0.4757044721607698,-1.3618568358465382,-0.9664541918531161,-1.32540589633176,0,0.0,0
8.158,-1.222790758118616,-1.1238152267307333,-1.0719119211731665,-1.709312198371727,-0.6706094889776799,-1.3872479551932873,-1.2413889845518644,-1.3517087121657303,0,0.0,0
8.218,-1.6249754650078485,-1.0767707741044723,-1.2979461591612258,-1.2872746030559183,-0.8341980544124378,-1.3568991340782954,-1.0970231155742036,-0.9534601273297337,0,0.0,0
8.278,-1.5185010334846634,-0.982158494930658,-1.37910980042406,-1.3281736168111908,-0.7344674936572729,-1.3789413665213341,-1.0001393166745796,-0.8908258222801573,0,0.0,0
8.338000000000001,-1.4516422621634923,-0.6097323179209998,-1.416987998622919,-1.5439584581179373,-0.40773022359586397,-1.3811005404617005,-1.2615776198701822,-0.760705255309602,0,0.0,0
8.398,-1.292752732201449,-0.4611736949939293,-1.3488178423145236,-1.3747774914086535,-0.4010657857397499,-1.3374474442617617,-1.5241494035459027,-0.08349724814311632,0,0.0,0
8.458,-1.1356478356998216,-0.7245314598025514,-1.0931401029282541,-1.0222608057778926,-0.8548706884960714,-1.221271107405437,-1.5216749227116881,0.16571646899423098,0,0.0,0
8.518,-1.0070133964075465,-0.885411780639885,-0.8758127940931257,-0.7534488364500992,-1.2481523116655138,-1.078707213457258,-1.3470138976959634,-0.44257841695698513,0,0.0,0
8.578,-1.0543298836378512,-0.9850859312332833,-0.8447257505886848,-0.9730233145854337,-1.1158948203872225,-1.156680749146344,-1.2279867842602483,-1.034657557327575,0,0.0,0
8.638,-1.0657245209734487,-0.8720250213207961,-0.9028987072515445,-1.5083916361097363,-0.658220281444185,-1.3014607161218366,-1.0589316392043575,-1.3174253349496758,0,0.0,0
8.698,-0.6922696714546573,-0.4195290708972588,-0.9101470240805392,-1.66849651099962,-0.32416161904194013,-1.262449942040774,-0.6843462848175242,-1.1357135105790075,0,0.0,0
8.758,-0.7714559786657441,-0.2886430140562381,-1.0959208823539648,-1.3232744667192475,-0.07787302177162728,-1.1030973883094226,-0.5357951576162922,-0.30375467368157055,0,0.0,0
8.818,-1.3442046547416913,-0.7065574229586149,-1.1925042541612336,-1.0601272137574098,0.09177965748136091,-0.5141137860312126,-0.9131530359640047,0.6013917442701457,0,0.0,0
8.878,-1.6196169487441576,-1.0205026784734808,-0.8736601486865091,-1.4882308815104779,-0.06231996579698629,0.4529957143771958,-1.1683366638194645,0.6610360441236636,0,0.0,0
8.937999999999999,-1.4257078104903174,-0.3491200834931223,-0.39029065558028525,-1.7968032246330623,-0.30601558894861014,0.959360649030432,-0.8791252661260307,0.12529825847572057,0,0.0,0
8.998000000000001,-1.0032043480450608,0.6357936504593527,-0.010295451434612237,-0.6234751636731444,0.12594539701732807,0.45393842093046705,-0.41908499700540086,-0.0046530033012285215,0,0.0,0
9.058,0.055993955762374314,1.0446534191565864,0.45881127255742865,1.2759374950744373,0.8211184124657213,0.09780377126119737,0.6308186796233103,0.9444238523569984,0,0.0,0
9.118,1.234594147704178,1.0717178236689235,0.7173623720203034,1.6123416513931235,0.3932803747280658,0.3213184911245099,1.6321083603355662,1.5681977303785886,0,0.0,0
9.178,1.4579960974404882,1.3738742175627119,0.92063310554882,2.0100208653886944,0.2532595260335184,1.1583731455536685,2.3473933995796807,1.8352483495902172,1,0.125,0
9.238,1.515812979126837,1.6782969748276908,1.7441219126114766,4.3489446699652206,2.1829085313177043,3.234086923743844,3.2378166099574557,3.3842318697921443,5,0.625,1
9.298,1.929902269475271,1.4156386766850098,2.794098936959283,5.986498721724853,5.245833495762925,5.9753848302370365,2.800185717955769,4.774710394283463,7,0.875,1
9.358,1.7904549805894103,1.7783738438137522,3.197734611406128,5.831210792424205,7.270499192466244,7.973666195460678,1.445182065743276,4.383078045251646,5,0.625,1
9.418,3.596905425194128,3.5773986824779964,2.8157903763763095,5.1360837013564336,6.209912536514442,6.767299382859576,1.5037856334712583,4.438607345919174,7,0.875,1
9.478,8.749684267605973,6.148664205711942,3.6267934383699583,5.570838920777422,3.831527611796176,3.8507247154194797,4.1107752993407045,7.962462886152815,8,1.0,1
9.538,9.029477587807902,6.005464407989589,4.637508723898342,6.043410330157708,3.230285773938004,3.1010718757737172,6.880639786543188,9.236724234761288,8,1.0,1
9.597999999999999,4.351674908522647,4.184749713056275,4.024992330224893,5.833100489436789,5.37771324603889,6.034878464417074,7.303968930711353,5.6400097196289645,8,1.0,1
9.658,2.5086006366936755,3.863093668310111,3.4007894596452872,6.267712703643074,8.120067115160964,9.260732294726484,5.823052184383502,3.482244551660934,8,1.0,1
9.718,2.0911962090201612,3.0665448869534764,2.844939265040669,4.9214047298158645,6.78796843908007,6.737169353428087,3.561936296889297,3.367830940295397,8,1.0,1
9.778,1.3859409584490716,2.2977583616451587,1.910936622350296,2.054135937137888,3.2967130217480562,2.9297255992374898,1.8902840980080315,3.139957307183385,4,0.5,1
9.838000000000001,1.2668654336226373,2.695870215547562,1.1824833586125731,0.7071781311634017,2.0322201366515835,3.094361744106855,1.043178426956742,2.742254842728885,4,0.5,1
9.898,0.9759131657585262,2.429983122931135,0.3889597635518032,0.3212130183953877,2.200032739724618,3.9428297592448303,0.8475059134616574,2.724507068295552,4,0.5,1
9.958,0.2194649842091769,0.7890592931597352,-0.19682433115166298,0.04670777448206472,2.0330854056548073,3.497044878999873,1.1740265363170774,2.9378210942048217,3,0.375,0
10.018,-0.3198159254291512,-0.8686954107135268,-0.27185027750882407,-0.055844696300579345,1.2075410187417284,2.484843812598576,1.0733544357157314,1.9517754831434957,1,0.125,0
10.078,-0.35027190501305605,-1.3613324213299112,-0.6019245669680161,-0.3254628417235217,0.5597085079124666,1.3387727053178244,0.2189550257753519,-0.15189543707866238,0,0.0,0
10.138,-0.7692993581666224,-0.9349115594129515,-1.0747579941349596,-0.4196521037148311,0.16332999088128627,0.01748076219805933,-0.5663685563836518,-1.5108862993240335,0,0.0,0
10.198,-1.6376538593016836,-0.6762664439694023,-1.2351838060877987,-0.3933189902124745,-0.3838891979973466,-0.45884476034677624,-1.0049555834757777,-1.3949907265520787,0,0.0,0
10.258,-2.000111002330464,-1.1535773204757507,-1.2757913795218676,-0.8597226092733012,-0.9429086804909281,-0.3883803881600761,-1.4092928097451425,-0.7044782791570173,0,0.0,0
10.318,-1.6808885921292165,-1.5764654304770955,-1.4438616847993548,-1.4417452177342038,-1.2999906270316488,-0.7810231509560555,-1.517902793920906,-0.6349059628497397,0,0.0,0
10.378,-1.0226475394332515,-1.6616046677051843,-1.6795195398469485,-1.4271031297784298,-1.4217955097959756,-1.0577376086986172,-1.1840571867116496,-0.8576421053111872,0,0.0,0
10.437999999999999,-0.4696798521358714,-1.6319863602698845,-1.7674312657532283,-1.2170807012507228,-1.1835282107242437,-0.5740690972793888,-0.768522209827649,-0.5844159051721912,0,0.0,0
10.498000000000001,-0.3638025358351759,-1.2818777731852238,-1.4099668666239602,-1.0339843334766228,-0.621169094643713,0.7324388921672687,-0.275440603082729,-0.32275059135878087,0,0.0,0
10.558,-0.5751810891109849,-0.5725327300837088,-0.6971595248429449,-0.2370491346279794,0.4135368495382635,1.9143674901716523,0.9773583293848995,-0.017475096935800332,1,0.125,0
10.618,1.149826680191966,1.221682124492527,0.5429210314847965,1.780644549028172,3.385871542646194,5.154236057875007,4.747843472822011,3.078516561360882,4,0.5,1
10.678,5.134837858022499,3.4775800976180524,2.583297528386556,4.528600693645956,7.5689710325208495,11.230150641230464,10.680345445238544,8.154376696210617,8,1.0,1
10.738,6.373476522063893,4.449561815497163,4.336337371210937,6.773262073866332,10.232826476215088,13.615670675505223,12.367582048025056,8.579798543222298,8,1.0,1
10.798,5.973447395089095,6.012949820253456,5.703957359073641,7.763819350885723,10.857736642599619,12.691091662637056,11.674719850469325,6.740826165000544,8,1.0,1
10.858,10.201125065433391,9.057628036475514,7.440272010168312,7.983433410143184,11.549112078675252,14.849431193508552,17.765906388584753,11.483419568899693,8,1.0,1
10.918,12.957093720654264,9.583173211880643,8.44603948281446,7.63897655494909,11.628272787225962,15.001373012955886,20.24444738628105,15.288518190837332,8,1.0,1
10.978,8.025413943680354,5.459608209941565,6.009254558022175,4.792214819617359,8.9040065672436,10.695221108293525,13.950865675214418,11.022500063377635,8,1.0,1
11.038,2.728952088695129,1.199459957851553,2.616552947004959,1.702143356050845,5.357273217230552,6.21471478639182,9.755268206185894,5.599903120985259,6,0.75,1
11.097999999999999,0.7862501954214883,0.13359340409876957,1.2719877653716747,0.5736511777052374,2.8552062192784633,2.1875857550052946,6.492812636810956,2.503083555416987,4,0.5,1
11.158,-0.08241165251155404,0.6976797754333969,0.46511194310687115,-0.05984246459806985,1.8034784061661455,0.7182304587093218,2.9547265305037462,0.9332165492203751,1,0.125,0
11.218,-0.5494065228440282,1.3205913184927727,-0.1541734118836109,0.29223200173929004,0.9938851434546955,0.6259185857892591,0.9630113888062942,-0.11313736499827239,0,0.0,0
11.278,-0.8593981117530961,1.2939921002565409,-0.14363259134912104,0.28393969328943686,-0.33667711720698307,0.0065046180650597625,-0.09416067710912228,-0.9715286947709075,0,0.0,0
11.338000000000001,-0.9397289219947855,0.37381349320898777,0.2956988989502291,-1.0437293752214007,-1.1338149475972819,-0.6005893346722255,-0.26121361332793497,-1.429859763631187,0,0.0,0
11.398,-1.2474687254050139,-0.762668523724455,0.4739161395312044,-1.6962558977744402,-1.3557878678877164,-1.1316547100509704,-0.5923898923386387,-1.4591751301932192,0,0.0,0
11.458,-1.580135249004024,-1.2732916118482112,0.12995036688258577,-0.9965719542247262,-1.2227952928240318,-1.3718234805283405,-1.163477595729795,-0.8761784766334144,0,0.0,0
11.518,-1.10538560764464,-1.0156029177800077,-0.4904573767169014,-0.4914308935790625,-0.8693521676587385,-1.1641934285771975,-1.226554742832511,0.6322612391333312,0,0.0,0
11.578,-0.19929542943325665,-0.7851095640581448,-0.6807632319662856,-0.7216548161093161,-0.4351444422588105,-0.7663603460470011,-0.9830204537795133,1.5485202995454566,0,0.0,0
11.638,0.7747110519392377,-1.3228494100557195,-0.6687280629711293,-0.9385109396251275,-0.15874053756104364,-0.4199425955017128,-0.8018828568551939,0.6705183096248936,0,0.0,0
11.698,1.147926799565163,-1.671120717175076,-0.898666327612008,-1.1259781642773423,-0.41671480430197855,-0.35597932145856775,-0.5236157993419126,-0.40431011111987686,0,0.0,0
11.758,1.095491878295817,-1.1461314795764537,-0.884773015749405,-1.3821068498587177,-0.9338938552701551,-0.5846099354947895,-0.4300817860650222,-0.3235744200730524,0,0.0,0
11.818,1.2251386785440097,-0.40904372842279063,-0.42272304140568223,-1.634274485914515,-1.0690613735847045,-0.6142127625880204,-0.6109200061878647,0.22466741115802988,0,0.0,0
11.878,0.32509654772694657,-0.3912608288262638,-0.30007541290740475,-1.493203905285663,-0.7130141603191237,-0.19743926892234376,-0.7296160078232364,-0.0844109888953715,0,0.0,0
11.937999999999999,-0.7091839073504745,-0.4988816539482206,-0.6802629743932135,-1.150439412689751,-0.14224340648685485,0.1608926941666577,-0.8528053934665758,-0.24098649764385335,0,0.0,0
11.998000000000001,-0.6520625424104599,-0.5538054523472902,-1.0678079735763537,-1.2025313356670222,0.11971604811592997,0.22462600073450908,-1.077214267941154,0.10193414220623809,0,0.0,0
12.058,-0.39157264624701477,-0.8125456302796222,-1.1666141276870698,-0.8279428768580736,0.2913634877195351,0.7519724021451616,-0.862823512117049,-0.15557291205186682,0,0.0,0
12.118,0.4637647553823168,0.1378160743256834,0.1906394779931594,0.841594449541251,1.2236867303201593,1.9636675247327517,0.5091752766060628,0.2835875515591957,1,0.125,0
12.178,1.6941117677037154,1.8893653407317084,2.2190074151070363,1.9042328081811368,2.7186922907610174,3.1668780236796983,1.6820443000304295,1.7534854725015958,3,0.375,0
12.238,1.9946070916510024,2.4932229913782424,2.550726438714719,2.412900688846331,4.774359639339807,4.527870876011515,1.089594568057136,3.034510171636857,7,0.875,1
12.298,2.5281579612617295,2.1520655652101515,2.641653698308305,4.473021562928884,6.570318490120312,5.899203988446584,0.10315179202555909,3.8693699635895342,6,0.75,1
12.358,4.584770656318528,4.476486490314106,6.335113065404645,8.348701069748245,7.501392691497877,5.5776524717293725,1.8324780722970668,4.937634816963553,7,0.875,1
12.418,8.50252617212538,9.280214193566012,10.972100067651724,12.912479162755867,10.053414384281558,5.660957724116375,7.651253169572971,8.057653642911665,8,1.0,1
12.478,11.309501846997053,10.515804212622204,10.850689679264717,13.69744987574075,13.060377801580673,8.614067144255424,13.138415423808839,11.243186504267863,8,1.0,1
12.538,9.408790125010453,7.947320999155799,7.65029388306109,10.95700453221788,13.731339636305334,11.26927246549698,14.141177799849592,8.347669265003686,8,1.0,1
12.597999999999999,5.055960986796587,4.681408862544539,4.627947127897184,8.055593545617283,11.944296093385224,12.043244556939657,12.17511983615091,3.566486107568732,8,1.0,1
12.658,2.009355309306484,1.7262098055542745,2.132026096000575,3.758203109510939,7.0495095848800595,9.776495047996175,10.160661819416156,3.35543248991614,7,0.875,1
12.718,2.2687412318273545,1.5060191784946804,1.7709012023989865,1.8820422696762957,2.940048467164082,5.7170066873395164,8.988042121117413,5.486004369661109,5,0.625,1
12.778,3.4568749819233933,2.6319340014054835,2.429659519031863,3.417129810237833,2.350335427210812,4.3976880059962475,8.331113313164423,6.897591666195883,8,1.0,1
12.838000000000001,2.512117887358434,1.5092114987268508,1.0575401869407342,2.5208799022080823,1.3890271214469594,3.3800246496926625,5.550839641904871,5.512453251471654,5,0.625,1
12.898,0.7511337536159558,-0.41059807331655945,-0.8551320025840913,0.2053570699669183,-0.09868079972076299,1.3047586083120495,1.5878571954351166,2.569424995182388,1,0.125,0
12.958,-0.5603708356183409,-1.1396290513289726,-1.7179716777517087,-0.534284166433604,-0.4880292743511578,0.2567845039733194,-0.32141257255940126,0.041565762790506555,0,0.0,0
13.018,-1.459176446472125,-1.1156327001336728,-1.632652318719752,-0.7538077042994198,-0.7192783390830102,-0.1924457696912357,-0.9362353515030705,-1.1223094061627583,0,0.0,0
13.078,-1.673291817454026,-0.9777828569689145,-0.662509780719469,-1.2698311506236728,-0.7076647617675614,-0.14477451347091558,-1.0934978282934267,-0.9183492043374231,0,0.0,0
13.138,-1.0891547718188646,-0.447752277515812,0.003201558798210343,-1.6515632220485912,-0.6773052211484895,0.013485202521801404,-1.0279691288146264,-0.40948665529920225,0,0.0,0
13.198,-0.30259353702235603,0.10201025223210684,-0.4628463809587513,-1.8440244204671743,-0.9972972546362232,-0.1079694882190257,-0.4092548079268494,-0.20743239873359,0,0.0,0
13.258,0.041535336253796,-0.36172641976624803,-1.2263945434334642,-1.8424592672988014,-1.2973747587242948,-0.22440530004042736,0.20821825542418448,-0.42731027492873225,0,0.0,0
13.318,-0.15347842026013161,-1.32019491116851,-1.2105029407248238,-1.4977677147514086,-1.4806178728408137,-0.670541472215146,-0.1333983979468418,-0.7309853233139932,0,0.0,0
13.378,-0.5122780334524639,-1.8650622074014434,-0.6392663534668984,-0.712815741310643,-1.2955777052515276,-1.163308345853076,-0.8231119899314473,-0.7126985385649699,0,0.0,0
13.437999999999999,-0.6706849224976601,-1.8595035745385242,-0.506276834141168,0.08479006741159904,-0.4640351384501749,-0.9035480708581439,-0.9886963996479458,-0.6810987715402569,0,0.0,0
13.498000000000001,-0.8385924289025959,-1.3347662050551685,-0.7975728908866958,-0.21239291742997055,0.15120526853439706,-0.046200358549435744,-0.4902733290629329,-0.8710203107467928,0,0.0,0
13.558,-1.2172726697243927,-0.8374440486421312,-1.0635607628117956,-1.0379551913842373,0.2208932745551667,0.6102870252959015,0.618317684110038,-0.24103472157037098,0,0.0,0
13.618,-1.3020945468427385,-0.7774308349727864,-1.0484144283844072,-0.8828105667319129,0.6217442883924459,0.4462903259978248,0.9808268723197248,0.6713065952788101,0,0.0,0
13.678,1.306679683717697,0.43394120387279206,0.0010209745574390656,0.43021790607864424,1.5233079781513268,0.5007117674676326,1.193845871042858,2.345560699111008,1,0.125,0
13.738,7.243201275246012,4.368195359064598,3.001484370464636,3.4234601353603575,3.5767144725541447,3.685009470239502,6.875735472333204,7.964924880874069,8,1.0,1
13.798,10.818437613170447,7.139722635907322,5.327315512800152,6.2341743131419785,7.361999329713055,10.003504080282132,16.975397981875087,16.032951447818697,8,1.0,1
13.858,9.58612852617691,5.835372530834458,4.448937440958993,5.67361107529348,9.69649809699507,14.199817494336505,21.370571284044583,19.96988092731785,8,1.0,1
13.918,7.0860774339267865,4.387266791001218,3.775338683164653,6.115581590242866,11.521985623752705,17.28265715812039,21.12569660020282,17.51647756461754,8,1.0,1
13.978,6.176594931376278,4.823385318869483,4.210956643315302,7.970483051417294,12.315171634059617,16.98993898220127,19.42047378224152,13.283154976092183,8,1.0,1
14.038,6.707257195860708,4.830272090724336,3.830326042088219,6.291166274074496,9.613905616355314,10.582086982804574,12.581578030874182,9.525156770766008,8,1.0,1
14.097999999999999,6.128247579309206,3.821703298911069,3.332138163192459,4.45047536162729,9.147892871773484,9.095649845346372,9.132758555435329,8.342372614271959,8,1.0,1
14.158,4.874350744055476,3.3070964087301924,2.7578495438767896,4.1817379715436385,9.752432426808506,12.845330401560554,14.26403019168154,10.677571641802382,8,1.0,1
14.218,5.640189253587025,4.864200864466162,4.06160057163986,6.131740867606539,8.919820409482476,14.07756604143664,17.08925428629104,12.11387203957292,8,1.0,1
14.278,8.083171125356186,7.752279199802177,7.53333064114775,9.745262113856855,9.215111394942713,12.560981905597808,10.946105167248634,11.43701602940133,8,1.0,1
14.338000000000001,7.270111763824789,6.916807871447315,7.460386300611682,9.69174778165837,9.541806602946036,9.935493966794812,4.734615307645162,8.472104812589608,8,1.0,1
14.398,3.267898177526487,3.0834793573842476,4.002905162638848,6.177018636113474,7.691719381191789,7.425206079777809,3.776639360580267,4.47984505639029,8,1.0,1
14.458,0.1463968481852159,0.3474312743331369,1.2937360847397612,2.5928293363626893,3.398231499397561,3.9834110657516253,2.400343108286991,1.3291092602332093,4,0.5,1
14.518,-1.6466316604607705,-1.2477465775018202,-0.44956474669454355,0.8493642890183848,0.33444611776936406,0.5283692931461846,0.48053801483771347,-0.8988650848123133,0,0.0,0
14.578,-2.0958947862242283,-1.5705142592664176,-1.2939868108779706,0.6543568348373754,-0.058633537328415315,-0.894052387070873,0.14247110934186072,-1.3940871009150217,0,0.0,0
14.638,-1.4901103838303371,-0.9330926022325502,-1.2456511073270813,0.09112567624912925,-0.09640125970728429,-1.0699305855466954,0.2120016102072444,-0.9321430188821593,0,0.0,0
14.698,-1.0794080082402735,-0.4749943227384714,-0.9625831030040817,-0.5917980903240593,-0.3957050863158871,-0.9875679916513546,-0.27262608585121273,-0.8392020134835193,0,0.0,0
14.758,-1.372882560840118,-0.7400791440932032,-0.596092481803946,-0.6233480890173135,-0.6754326261978405,-1.0298740292743698,-0.8711064937520661,-1.2181106058632878,0,0.0,0
14.818,-1.3203066763966496,-0.5938447807831384,0.037446064042836805,-0.5232879163339464,-0.9559696804620738,-1.071347368755606,-1.2965642472416008,-1.5756589066586093,0,0.0,0
14.878,-0.7534079968827667,-0.11523632866560203,0.10553485445281408,-0.15684461640716613,-1.0387053692128967,-0.9817823405849676,-1.406449388549887,-1.4918054305795605,0,0.0,0
14.937999999999999,-0.6896849372441016,-0.3601123222304407,-0.7655907754099198,-0.13909975400623834,-0.9552685925135896,-0.7387128172102574,-1.084317644436018,-1.081309167067949,0,0.0,0
14.998000000000001,-1.0069619714621767,-0.3100841953702057,-1.4789978189907416,-0.3989925654108104,-1.0803523461535043,-0.7570329647932189,-1.04825793176326,-0.9869241493180295,0,0.0,0
15.058,-0.8558037461888167,0.3650054427063701,-1.3064460838825747,0.05419217090362735,-0.9538523282856092,-0.943944451500442,-1.1703336987649477,-1.058305335904953,0,0.0,0
15.118,-0.6445115324714363,0.4599374153241886,-0.4923445788611546,0.21824556677074894,-0.5085071890489407,-0.7709340489149801,-0.260955841695157,-0.671211293737484,0,0.0,0
15.178,0.1352682919180592,0.5109048009101077,0.09223307129242068,0.13649463590145633,0.6063733967226894,1.0138886457149479,2.1921745472972067,0.8327356804728779,1,0.125,0
15.238,3.309438052862152,1.9534211116250624,0.6025774201983685,1.1681092577148964,3.0435056671611243,4.4447157717714605,7.576124967178625,5.138060226731494,5,0.625,1
15.298,7.248991824482492,4.030782415935241,1.9926745656399287,2.0507219405706976,4.419561632431013,6.3840857807368785,12.792781979089831,10.119979669636953,7,0.875,1
15.358,9.390582740553134,6.712934361086046,4.36215358567545,2.26443045437332,4.925480892644708,7.4196531664404475,12.585501991558289,11.910185142538156,8,1.0,1
15.418,12.41632834042271,8.686017374326045,5.8424966321056075,4.360935725487203,7.579775513380187,8.743354304358213,9.317740417031054,14.634956079311175,8,1.0,1
15.478,14.623135283972232,6.680332453688227,4.904059488592538,5.899307945789908,8.111001442011263,7.0145195454020675,7.366873118161338,17.104208581760567,8,1.0,1
15.538,11.400955838060431,3.5729325406924057,4.124506294903331,4.427797486232866,5.007695501216618,3.9004610372159796,5.707603794502302,11.339059375033399,8,1.0,1
15.597999999999999,6.851712819507064,3.243754574561196,4.743111678166376,5.6569400848946545,6.924571534935631,5.669221457211212,7.249141324692712,4.42393431351869,8,1.0,1
15.658,7.738398593379419,5.462625354729756,5.86541293021275,10.994937795241809,14.043550916052617,13.102215276372734,13.400489839879484,7.6918700679113,8,1.0,1
15.718,10.248652421112313,6.264071167636113,5.452935204739119,12.244775597571552,14.256223048953041,14.944848296288706,13.17546183082112,12.820715548447248,8,1.0,1
15.778,6.150808514603465,3.3493172773715236,2.9408394171710825,7.133417762130475,6.768418232603591,7.314443513737088,5.028034431133615,8.478970028158594,8,1.0,1
15.838000000000001,0.5857138071421671,0.7129248452224665,1.4899497425798067,2.1970049375048144,2.3175076890831816,1.6212457912588467,0.17442228960735187,2.037810946546013,3,0.375,0
15.898,-0.31583860145523623,0.31288391434003754,0.8407745967731094,-0.3906290819107772,1.5399099669748733,0.8313870708616667,1.2292943454834275,0.5610887004511387,0,0.0,0
15.958000000000002,0.2653963762938851,0.669111165372401,-0.2343439121569343,-1.420396007966337,0.48467162378989137,0.7569649645046056,2.863856008019837,0.596252643702657,1,0.125,0
16.018,-0.2113766296997477,0.47836610274904556,-0.86125339578619,-0.785765087384608,-0.024604427915822333,0.32832717800034344,2.4838398930257726,0.1689900525229516,1,0.125,0
16.078,-1.077911137399957,-0.5810671571003071,-0.894993767298529,-0.23212988867945952,-0.07990116673714683,-0.355168233395353,0.785283696768864,-0.1048990393268409,0,0.0,0
16.137999999999998,-1.3929206731691617,-1.305167230488272,-0.6577239962355071,-0.6514510892155897,-0.439392721008133,-0.6983867430353765,-0.5879298002933068,-0.04494982669943498,0,0.0,0
16.198,-0.749500941861156,-0.5866588553593218,-0.544410658405753,-0.7590513688023175,-0.456657206769232,-0.14586515990197776,-0.6525614050152319,0.26309378838106,0,0.0,0
16.258,-0.07905025629675057,0.38159593706210343,-0.6765580435194173,-0.18356789472018306,-0.3151207138613638,0.3728839431302697,-0.0005742738631423702,0.278304836605149,0,0.0,0
16.318,-0.29152422237379516,-0.13509136725815957,-0.880828367522205,-0.25092832072948534,-0.5254852199410455,0.5266757240845615,0.13762385714701883,-0.2814797901115809,0,0.0,0
16.378,0.46816698223361347,-1.068803690942228,-0.9807077132845293,-0.5168946934555039,-0.43432414186575863,0.9819807739258497,0.37767480769566214,0.010716937270800031,0,0.0,0
16.438,1.3408170599232327,-1.2096567050195315,-0.45111546270257036,-0.3700276023539523,0.17570877282914754,1.026437798748323,0.7233653049934755,0.6557132843798334,0,0.0,0
16.498,-0.12450726953285983,-0.6732418220288703,0.27429468173081445,-0.4227537033124407,0.9539049417836573,1.6430951400395015,1.1763075150882956,0.5087809070155589,0,0.0,0
16.558,-0.8680926687680098,0.852828383410336,1.3036440247263164,0.21764432430014105,2.2009675122484516,4.405709528412316,3.7149723760212723,2.075398066902324,4,0.5,1
16.618,1.9573159600018064,3.2978225339216323,3.6277623960987326,2.204818098548172,2.520451292546059,4.5899463467816615,5.593301772285571,4.620356723532138,8,1.0,1
16.678,5.882457887940441,3.6137434912708115,4.13269848750113,4.038628970566081,1.788366849227721,2.546892101287501,5.125352986526392,4.579519173596489,7,0.875,1
16.738,7.473166094908902,1.2417503508411964,1.9787323983674723,4.474304481836568,3.5068989425911963,4.225010117812874,7.40605876557148,4.2461365313781245,6,0.75,1
16.798000000000002,5.92278984188619,0.019825940237421194,0.4588380801925733,4.182501855562049,7.681019353536296,8.281116147265704,13.221017178319306,5.536161299349696,6,0.75,1
16.858,2.8209154187641925,0.7861301400609566,0.43030531826811863,3.2303433772409686,8.833713730930654,9.873057280928093,15.52170659012443,6.02291133883217,6,0.75,1
16.918,0.323182689320376,1.3806563816264976,1.562090695794098,2.68748862742531,6.49607030349355,7.829731038144445,10.959189621901471,5.475288195011768,5,0.625,1
16.978,0.24062594386885308,0.7043031460192601,2.179190657782416,2.189544341693906,3.332968074248915,4.376353440710376,5.183361777197565,4.157572775237253,5,0.625,1
17.038,2.2895515578294203,-0.0427645729155009,1.4558240665672493,0.6212725352368771,0.6919018546772029,2.080264199623409,2.4478629933055753,3.3432547317213555,4,0.5,1
17.098,2.9371126532569085,-0.35236937852302525,0.8379089428236294,0.07867385358391178,0.5376838565460971,1.537226695565025,2.0413452903946854,2.609610695379405,2,0.25,0
17.158,1.679648033360387,-0.15137390331545117,0.565441454951331,0.8337190876428723,1.231035189820242,1.621729986470801,2.3708518481815744,0.8719600699137099,1,0.125,0
17.218,0.9599467472800814,0.17478518929331374,-0.1003688575046238,0.7395456539524498,0.5752603241389372,1.1673924217499858,1.9231310732582105,0.1272708456150652,0,0.0,0
17.278,0.4042986473315342,-0.08929590756230836,-0.8091766625058385,-0.1381195666298263,-0.563422295346632,-0.05813399230020363,1.0346630187595482,0.3090783334416976,0,0.0,0
17.338,-0.4239010255229126,-0.4928383877331113,-1.2113970370519265,-0.36437612284348514,-1.0037041801459181,-0.5587046720069018,0.027053564788026247,0.014186382168632475,0,0.0,0
17.398,-0.741644307440893,-0.8167835704649704,-1.4008583499139713,-0.45493713462216406,-1.0228755165330947,-0.35219283813979935,-1.1127410279042438,-0.8834800843250584,0,0.0,0
17.458,-0.8370306861565503,-1.1381966031019928,-1.1718140055778041,-1.1102982104040098,-0.8740463132781544,-0.5994216061294325,-1.6417108756575878,-1.0118932012363273,0,0.0,0
17.518,-0.9843569985227206,-1.2445116158934553,-0.750128923197663,-1.611569437566699,-0.4189628227621814,-1.1035424930748188,-1.0886398422011008,-0.5194296428490396,0,0.0,0
17.578,-0.8471201910114824,-1.0795460993011903,-0.6882972433231441,-1.4501993998119846,0.24177251270901964,-1.3077717092987744,0.44595203704844194,-0.5943186998409563,0,0.0,0
17.637999999999998,-0.8463600900575141,-0.9788733033284408,-0.4263968677792173,-1.0480867188690297,0.34192983402333027,-1.3198511657375795,0.9725154563751004,-0.6531722827686103,0,0.0,0
17.698,-1.2922837975695234,-0.9353934922345943,0.09761261650923302,-1.0831536640985344,-0.13340591191135534,-0.9182725253020948,0.2104792176248894,-0.08369305192165623,0,0.0,0
17.758,-1.5552298015578419,-0.6820301690401646,-0.04992487890469096,-1.1651126674431798,-0.6019403553654712,0.039742995281187875,-0.14286018791599864,0.8063852812393439,0,0.0,0
17.818,-0.5426386562483579,0.28472542863423794,0.24102384354769665,0.039118993494564804,-0.5235663426396558,1.1023372381808663,0.7202908577481452,1.9636550576258855,0,0.0,0
17.878,2.1547857317950756,2.228634107732756,2.219038329607992,2.2035223752670943,1.1545145900095706,2.4800396634004627,4.376038360321052,4.857546122825496,7,0.875,1
17.938,6.811182653204778,5.57171498444657,5.126111984861811,5.267957863934593,4.070387309059356,3.693534288260801,14.305170595752271,12.416476862463675,8,1.0,1
17.998,12.909155902878014,9.073550493526486,6.467104723686979,9.056531550477905,7.884934602839615,5.641226073537478,25.33203684148258,22.20008164535028,8,1.0,1
18.058,13.083182790830369,9.383842635747259,5.753398175650832,10.830394469312843,11.104872498048069,9.003603490069404,23.348473163756328,20.21271331228362,8,1.0,1
18.118,6.551675737068655,6.687504113694261,5.371868811002159,10.098455452222272,11.662873307938199,10.848649545311233,14.655472085453596,9.133675853622849,8,1.0,1
18.178,3.814756790570709,5.507922095337444,5.970141835916809,8.677576522853565,10.150750238365175,10.374275038837835,12.100652737888081,4.209764941681711,8,1.0,1
18.238,6.018160601459669,8.022020187285348,7.53964991869933,7.658004204821865,7.093990435233651,8.608274293744572,10.711790364179727,5.90003403714766,8,1.0,1
18.298000000000002,5.638124863217288,9.01960612045561,8.631404818100892,7.868533540538285,5.8411255879447355,8.430653357622242,8.295788777740716,8.875644769234993,8,1.0,1
18.358,2.704647884252365,5.495943312799095,6.577945374132448,7.591773274956503,6.572432136231462,8.585562877063147,7.275195066624982,8.970351783920526,8,1.0,1
18.418,1.4731522042912426,1.5052011893366937,2.902720940915431,5.0359785412315405,5.22600025534321,5.6492189303811715,7.424321828710499,6.821166066166563,6,0.75,1
18.478,1.0565649823688068,-0.5472038148266362,0.7132038975295498,1.834631284305253,2.57838768333148,2.4296752993819175,6.07356437267304,3.5986055276412574,4,0.5,1
18.538,0.2534826784784769,-1.356316157822576,-0.39045461546233673,-0.32363192792364276,0.6581437810313978,0.1890234890689325,2.1452180182505813,0.37796721160137975,0,0.0,0
18.598,-0.4829963106649689,-1.3859033401547498,-0.9612918510376461,-1.365482809934967,-0.377609219624828,-1.120731268097845,-0.6483006132476167,-1.0646394702439863,0,0.0,0
18.658,-0.9573576892905885,-0.6610702134821201,-0.9883549105060069,-1.756151776214005,-0.9857617997310287,-1.249971440463646,-1.235317313024309,-0.8400938140293691,0,0.0,0
18.718,-1.1045921146097808,-0.10977429120389472,-1.2623444096575962,-1.8125177080033188,-1.0966751113761366,-1.0646312722246807,-0.9335284308317305,0.06952655104804334,0,0.0,0
18.778,-1.2044028201172738,-0.5860176996838512,-1.4722020569828052,-1.7234940476624636,-0.8523079775684425,-1.0290350286155914,-0.707037430551774,0.17657265741926967,0,0.0,0
18.838,-1.528306356893235,-1.1196341994782435,-1.4510178025545677,-1.4226537227063891,-0.782352273653522,-1.2449134901041912,-0.9421370798925884,-0.6072303625297065,0,0.0,0
18.898,-1.413654124479453,-0.7807838346377758,-1.2673335396218182,-1.0803150778480364,-0.8395496591484038,-1.3013720142133014,-1.1644555596673765,-1.0468341234405236,0,0.0,0
18.958,-0.8661895580011615,-0.6359635564142018,-0.9899737081157367,-1.1569581749792077,-0.9995143671588637,-1.1013542061941144,-1.0427576423099267,-1.030987411641236,0,0.0,0
19.018,-1.0026635758629745,-1.1177823071147592,-1.0127930148481707,-1.3350453380745886,-0.9579284628869885,-0.9002270227621462,-0.7891408657526745,-1.0030014389643935,0,0.0,0
19.078,-1.5811970761590894,-1.3261238574781402,-1.092653391031669,-1.5631301049244415,-0.711141841982506,-0.6848042810087587,-0.7278120103055375,-1.1050322543716002,0,0.0,0
19.137999999999998,-1.7354104931073742,-1.3250447215743109,-1.132516696779135,-1.799857717979905,-0.8564601975183939,-0.6803417135996513,-0.8192620084148018,-1.046524980270211,0,0.0,0
19.198,-1.5235714935808247,-1.5719937774811326,-1.3504939611377764,-1.5850203451984681,-1.2159763158186994,-1.1146576190861806,-0.7774255244287955,-0.9662446664138934,0,0.0,0
19.258,-1.1784316795012326,-1.689541454711214,-1.497097340756192,-0.88726122459724,-1.2298451581978624,-1.426265117983317,-0.2246077452174885,-0.9790214223548742,0,0.0,0
19.318,-1.3239053230897395,-1.3091762051726723,-1.321078635964305,-0.038405362386158354,-1.0861710804243845,-1.2781253945715145,0.3527241981357357,-0.8042271787729413,0,0.0,0
19.378,-1.7183391402388803,-0.6469876604194698,-0.9666104035451126,0.15450290241111578,-1.2167653633366002,-1.020342145555013,-0.05762700340278029,-0.4580701005284096,0,0.0,0
19.438,-1.2101389328066032,-0.29846248039759754,-0.6950296910186476,-0.7228237188072802,-1.2884371530083014,-0.9452528864589409,-0.6234163341908349,-0.3097205670136139,0,0.0,0
19.498,-0.5018297334143289,-0.41460676002484226,-0.7984349865834749,-1.7223052758382462,-1.0090639389621334,-0.9902711185854288,-0.5531213956833159,-0.5047806575481554,0,0.0,0
19.558,-0.8571636817377062,-0.632256281076008,-0.9671046750768358,-2.054229980541369,-0.6305880053741114,-1.1347511597919595,-0.528869507116524,-0.8265253205133583,0,0.0,0
19.618,-1.504436258088347,-0.8976005624911271,-0.9229466238368104,-1.7468670257504233,-0.6497538001749001,-1.0980249186389988,-0.480785356588545,-0.9556121892667709,0,0.0,0
19.678,-1.6825548482361732,-1.3206289679117658,-0.9733989188826783,-1.3164122945782102,-1.1440175030797108,-0.9989336954093275,-0.43792183866726503,-0.7704511283456114,0,0.0,0
19.738,-1.6019551981013749,-1.4127855052953608,-1.1957201591013455,-1.2658666338323836,-1.382226399812329,-1.2232020179189145,-0.7688332848621711,-0.7354373119303895,0,0.0,0
19.798000000000002,-1.579248515792754,-1.15885514129577,-0.9115970456890309,-1.3447902535250034,-1.069974899246822,-1.2368705751499656,-1.167973767589285,-1.2005719811249593,0,0.0,0
19.858,-1.669522898612229,-1.1166671521665836,0.1585455968758082,-1.3154182523830675,-0.720338766998739,-0.9689457035374184,-1.4449315727169811,-1.5685931990434396,0,0.0,0
19.918,-1.7481564750850718,-1.3340163051153617,0.5181800904428728,-1.469501993774384,-0.8864591956198323,-0.8871352627659368,-1.5862458463508897,-1.180010792493773,0,0.0,0
19.978,-1.7361650988846424,-1.236076551066954,0.1011053721209687,-1.535502917536378,-1.1911111578132816,-0.8950628652196119,-1.4029520874520613,-0.6009270944673939,0,0.0,0
20.038,-1.720558931202605,-0.5407069900286856,-0.3308084076894491,-0.882765429772458,-1.1576336925748303,-0.8880011134055624,-1.0307445406813662,-0.7868431787672452,0,0.0,0
20.098,-1.806754340396749,-0.12953374904735973,-0.8454240575338471,-0.48551250483796804,-0.9068086318112556,-0.7366766696368076,-0.28339477897187076,-1.3024432118677745,0,0.0,0
20.158,-1.5339175736076778,-0.2621095446363377,-1.162037352319121,-1.0553751877829907,-0.6906365026363526,-0.47565529013744845,0.01204673082196688,-1.2106531153483522,0,0.0,0
20.218,-0.8886402320106094,-0.4626438106905468,-1.1926375514696412,-1.1940437702389766,-0.6347058816377343,-0.5682666477667491,-0.692990724185249,-1.0204875072514155,0,0.0,0
20.278,-0.5233214445811076,-0.7765222539680555,-0.8953764239362165,-0.8192504745063095,-0.4775559768533643,-0.8535164994188328,-1.1445111366853709,-1.2660826734109663,0,0.0,0
20.338,-0.8166000040826233,-0.9915666417873452,-0.6733044748352685,-1.0396639543762929,-0.3246917172783044,-0.9737011210955093,-1.1402002876880521,-1.3766528206256077,0,0.0,0
20.398,-1.1710375389980585,-1.0152461053876622,-0.8183378311539462,-1.4463368681438071,-0.14389953196748675,-0.9745251186160159,-1.2103254940973003,-1.0471096332736807,0,0.0,0
20.458,-1.0573308336130272,-1.0404276823272935,-1.0738826407988684,-1.2485378084120862,-0.16220579300068386,-0.9128542921844075,-1.1755956554200997,-0.5131890540491009,0,0.0,0
20.518,-1.1239026894415332,-0.9403827249196369,-1.2315709429525727,-0.5853799075015476,-0.6303138501459308,-0.9209946623874258,-0.9245153717876743,-0.3114832404998386,0,0.0,0
20.578,-1.287698222518897,-0.6185179708062855,-1.218214010789894,-0.5620406516807169,-0.9452565252223936,-1.067181396859909,-0.7103055685493272,-0.6521318504417608,0,0.0,0
20.637999999999998,-0.9049707156755472,-0.5831670108519129,-0.834342184333607,-0.9552148762306903,-0.7470437774226242,-1.2036657478495063,-0.4769946771769784,-0.6200564836692818,0,0.0,0
20.698,-0.6910262904396678,-0.8043018091029825,-0.35895519920676483,-0.7442511408039857,-0.36837027111980447,-1.26326144686827,-0.6544616010322056,0.04547436345619693,0,0.0,0
20.758,-1.094443792288746,-0.8707851058725266,-0.4957639452047589,-0.2658359535018448,-0.5773565099164457,-1.2246887680744212,-1.2364006985495795,0.7011324312640516,0,0.0,0
20.818,-0.8209845603086873,-1.020750745902643,-0.7850470869333992,-0.33963476490022493,-1.13659764034566,-0.9826252662746143,-1.3609168634764746,0.44750339346469853,0,0.0,0
20.878,0.197207037591539,-1.2535726012658255,-0.8370625695255286,-0.8115372045858628,-1.351700195349199,-1.0003336077816225,-1.1344604577289308,-0.3978720621478305,0,0.0,0
20.938,0.16863355135868682,-1.3692933030236512,-1.0934508475089428,-1.2521197597934715,-1.3540262006671702,-1.2393384820508642,-1.040657103116289,-0.7481404407395175,0,0.0,0
20.998,-0.6510081178705946,-1.2488582429384725,-1.3547599664234011,-1.727598891262116,-1.2529137136735249,-1.1604447126645383,-1.0045045175894023,-0.9833295364850921,0,0.0,0
21.058,-1.2464341584571121,-1.22636260503112,-1.2868222060596741,-1.9442092087990748,-1.0214903593819935,-1.1067596001229336,-0.8738365489215388,-1.1128520994763482,0,0.0,0
21.118,-1.7303168762769368,-1.3827576511733666,-1.1623369805571349,-1.7077065126763589,-0.9217379076771287,-1.1459313304916015,-0.9303686568611501,-1.0839150694392987,0,0.0,0
21.178,-1.7168981242665593,-1.2091630614576367,-1.0668761211289206,-1.2587478334042699,-0.9905494910571973,-1.1739438461822218,-1.0129621765421628,-1.024657673181617,0,0.0,0
21.238,-1.1544237898432261,-0.8882721364185729,-1.1896838969831838,-1.0504176037636264,-1.16871184619273,-1.2502268272019934,-0.8534470356627705,-0.9126933816591305,0,0.0,0
21.298000000000002,-0.7332890585591912,-0.909085226225219,-1.5371370332177137,-0.8515655820555482,-1.3879431325086982,-1.2527348440400283,-0.8863772216744854,-1.2366430180828907,0,0.0,0
21.358,-0.8917201958391456,-1.1044073854760377,-1.5801534091519747,-0.862111299145902,-1.4234427063689337,-0.9869448154917029,-1.248314881287108,-1.7059890426444104,0,0.0,0
21.418,-1.0801601453701688,-1.3510205801978918,-1.262803804045449,-1.324470637465206,-1.3181263878148326,-0.6612271240277101,-1.2737952797417726,-1.567738958887715,0,0.0,0
21.478,-0.44272809397893803,-1.321684038615944,-0.8207419189585788,-1.6175043489488319,-1.2194938824038328,-0.6914699475481277,-0.6189038139820927,-0.7822470626420704,0,0.0,0
21.538,0.7625546622523052,-0.4248761389471373,-0.427565117061377,-1.711712306200946,-1.0925806084417766,-0.8281838536660211,-0.24589235994134517,-0.13667537786836448,0,0.0,0
21.598,1.3242277819014672,0.49254064469141307,-0.4431023925563329,-1.5976146698802813,-1.0586747520418929,-0.8799247796517008,-0.5277609847723143,-0.3189411737361099,0,0.0,0
21.658,0.6984184645579393,0.18080886026980494,-0.5267723061861854,-1.322727702165512,-1.1717511425305642,-1.0143272958256047,-0.7445042197513815,-1.118435696598966,0,0.0,0
21.718,-0.1719661173700532,-0.4028310249449802,-0.47553268323337533,-1.2273232706094197,-1.224110728023059,-1.2422504887870474,-0.8262778538777088,-1.6549931897799761,0,0.0,0
21.778,-0.3280077445499413,0.02453914131831848,-0.8240742782830771,-1.2617130731871071,-1.0965573216344902,-1.3884219517948475,-1.0119955618939704,-1.5622271454111676,0,0.0,0
21.838,-0.35233279936597367,0.6081567521359872,-1.0567474140231699,-1.1987203004480764,-0.9758666281001797,-1.312550742659723,-1.1131598262371896,-1.1855375040990395,0,0.0,0
21.898,-0.6596996879830763,0.012742092152819517,-0.6936287461688319,-0.9669406300146913,-1.0999635104808538,-1.1119849068126615,-0.9549329938493982,-0.9049986719210029,0,0.0,0
21.958,-1.0436512315575417,-1.1156314413478534,-0.6984764223321198,-0.8005288074550858,-1.2773750107198163,-1.068665747838989,-0.7714382424623346,-1.1112556245163463,0,0.0,0
22.018,-1.3569323676329557,-1.5631184474055668,-1.3010620970889346,-1.038240761575641,-1.2948959135426708,-1.2134468591557146,-0.6296486470633869,-1.5114470457902225,0,0.0,0
22.078,-1.3656745692886225,-1.4261919816623754,-1.5212420203296315,-1.3724230022445187,-1.1112344532609006,-1.3280270154698532,-0.6278520733978968,-1.454419894769207,0,0.0,0
22.137999999999998,-1.2582862892867797,-1.0618422230257636,-1.2288863216761425,-1.2905772481868485,-0.9591268222901759,-1.3180808505481652,-0.8682060346451758,-1.2361232646300067,0,0.0,0
22.198,-1.1886700889672137,-0.847765877171494,-1.058228382376916,-1.0466430990733586,-1.0965706461562532,-1.0943426950824053,-0.6214693072303609,-1.1030326032472755,0,0.0,0
22.258,-0.7992104052665647,-0.7487652895911783,-1.117619960194365,-1.193655714685839,-1.2139540861888873,-0.8923814522554842,-0.4005652526598282,-0.7874988920793373,0,0.0,0
22.318,-0.4021368939039025,-0.6967044240275085,-0.9448549059893244,-1.7049620245468278,-0.7931660490716209,-1.001070859818867,-1.0953812680770583,-0.7587858930912321,0,0.0,0
22.378,-0.4791225664179317,-0.7734864715600889,-0.768521820662306,-2.059147899579727,-0.4804139687618128,-1.0716192191652114,-1.6181617608014693,-1.2249417551151593,0,0.0,0
22.438,-0.3439802889873244,-1.1359483363981506,-1.0315929252381968,-1.937871867135606,-0.9018776437568691,-0.9489877638786993,-1.498963540596689,-1.6334999747568049,0,0.0,0
22.498,-0.16905031003542648,-1.5064224639264279,-1.2880552145568671,-1.7245992829820642,-1.254420847492293,-1.009128188757758,-1.5028033766938635,-1.7350238832032148,0,0.0,0
22.558,-0.7753726532842693,-1.2065105128222837,-0.9559496520129075,-1.5719156568436972,-1.2629255467133707,-1.1019316351960715,-1.6656972045666933,-1.6757820744796301,0,0.0,0
22.618,-1.5361328115578436,-0.5529629354017607,-0.7371096726148716,-1.3692656565288568,-1.3823608813984727,-1.0088098959923442,-1.689510626506375,-1.514609588179467,0,0.0,0
22.678,-1.504746566146762,-0.4448976759194263,-1.1831901441038142,-1.0870778246498836,-1.391178085306658,-1.029518338234574,-1.5137949585153807,-1.3694898417146923,0,0.0,0
22.738,-0.9014288718452489,-1.0382725528267758,-1.4428668308522212,-1.0288812261518423,-0.6598659218173638,-0.9963048166812754,-1.1712071563350868,-1.3581617892683207,0,0.0,0
22.798000000000002,-0.9084404193697848,-1.5601599419116159,-1.104746999394991,-1.4817793062254871,0.19897138903138345,-1.029905001119394,-1.0711692885373474,-1.3587941757331052,0,0.0,0
