t_center,rms_emg1,rms_emg2,rms_emg3,rms_emg4,rms_emg5,rms_emg6,rms_emg7,rms_emg8,mean_z_emg1,mean_z_emg2,mean_z_emg3,mean_z_emg4,mean_z_emg5,mean_z_emg6,mean_z_emg7,mean_z_emg8,channel_count,frac_active,global_active
0.10200000000000001,0.6330573136956478,0.6680735298941084,0.4551120813897662,0.9656196200481559,0.5684658232015783,0.4900703387365919,1.1143161185037425,0.9990991732784079,-0.822323867337554,-0.8270158680347209,-1.3262910472834089,-0.09741618718680785,-0.8390635347091496,-1.2900361519064765,-0.5538212221923374,-0.30698108035240484,0,0.0,0
0.162,0.8892330907754854,0.6614981096341833,0.46658887765255813,0.9510227679412846,0.7411613460387718,0.62370208866793,1.1928226926779617,1.2454334092648125,-0.3003447077338968,-0.8538376316173192,-1.2987696947630205,-0.05882525153551795,-0.4586293735766281,-1.0092799329040743,-0.3751248173961306,0.2050652946513851,0,0.0,0
0.22200000000000003,1.271940357092417,0.4541002589834974,0.5431480703520469,0.6691726470658096,0.7497871741278611,0.7877308920134317,1.1928064165736763,1.4986156761300875,0.4081878019615999,-1.4197644463202332,-1.151674025996355,-0.5959533652820551,-0.44248790967582613,-0.7606353285263688,-0.37299917625751805,0.6954157298504652,0,0.0,0
0.28200000000000003,1.5394560386629625,0.37726515919581133,0.7684706668491917,0.6010375466626929,0.6833042992054638,0.9930174795905481,1.2700947874151605,1.4449251726695358,0.9675948324317892,-1.5848455753581778,-0.7056372679728504,-0.7217111147485418,-0.5628953806139644,-0.41624777330019747,-0.2781610859234699,0.5632552101680465,0,0.0,0
0.34199999999999997,1.3270825732917302,0.5337193090310327,1.0314502886904187,0.7344632271698098,0.4996597025831143,0.9362550600038899,1.289700160946997,1.0922552515983521,0.489098975086722,-1.1883064176100204,-0.14228719311810545,-0.4794450418362217,-0.8911223679801855,-0.526956446099654,-0.25714862033803804,-0.11675716078673049,0,0.0,0
0.402,0.9092388764301687,0.5696170724358778,1.0504216739699224,0.9622658481507447,0.3127504711025825,0.6344805296083632,1.2655161160714152,1.1239615966276004,-0.26134089166641994,-1.072369725726822,-0.10176404868688871,-0.008204464862788323,-1.1652130176734632,-1.03108783461836,-0.28690477211675197,-0.048457272420137774,0,0.0,0
0.46199999999999997,1.0080287771299026,0.5146155759167763,0.7605231327005499,0.9759185345311169,0.27472976073895,0.41733368817301336,1.075609572136194,1.2179624059089251,-0.08225011506786688,-1.209518085351375,-0.7663827035539703,0.03165992784986335,-1.223526554149254,-1.3482661724992349,-0.5011240892076178,0.14802011669945794,0,0.0,0
0.522,1.1371916499639043,0.5128611186480743,0.46510777179862334,0.7695787473335666,0.34149670127544823,0.463803279050471,0.8093896429074905,0.9005721233590324,0.1931597043523756,-1.212287255638271,-1.3178261048504096,-0.4033401887679324,-1.1235358457548534,-1.2846572632188453,-0.8250743654365161,-0.6201319655497335,0,0.0,0
0.5820000000000001,0.8707758627493489,0.4669085879517117,0.4314980250934599,0.5183017549428852,0.3754845429214355,0.7402802792701896,0.5091385695310685,0.4068028315920234,-0.4173429187548912,-1.3383700354194368,-1.3733174779783603,-0.948237446524367,-1.0636587060767297,-0.8614533276960167,-1.1404371436056122,-1.5121771564753204,0,0.0,0
0.6419999999999999,0.5201803548431223,0.3836370681532594,0.4735382473031189,0.3255577253716779,0.29202823963827984,0.829007148570949,0.43745429145321657,0.4178280383085074,-1.005755038673489,-1.557964340752273,-1.2863022959631767,-1.2943175905463975,-1.213535246942245,-0.6893021701622137,-1.2108113201828172,-1.4721237730471077,0,0.0,0
0.702,0.524366943354917,0.304346926544005,0.6266826529911709,0.47670324478431764,0.38319730234875765,0.68099640406048,0.5733085687647935,0.5797272072101598,-0.9860349329188239,-1.7681415022569655,-0.9961319447582753,-1.0348542864659396,-1.1007415299766892,-0.9320366780736337,-1.0693816201448005,-1.103799975792125,0,0.0,0
0.762,0.5019933096252097,0.5857823631641577,0.9191034389935346,0.7234586068672624,0.5974622683780867,0.7919880746217831,0.772841770150847,0.6070154454556439,-1.0311090475905456,-1.2386006701685819,-0.39796598761221164,-0.49845196340975195,-0.7154031596815912,-0.7706127708925452,-0.8430454704491669,-1.041469194983318,0,0.0,0
0.8220000000000001,0.43948078416200664,1.1119496775357245,1.2140614124515692,0.8527904629443658,0.6324603776616593,0.9080654339709289,1.1024599937719257,0.7093697264977593,-1.1443535967999223,0.2019200572548705,0.23413402001298578,-0.21004694034003243,-0.6393981884450773,-0.5545655985959451,-0.4937165958868375,-0.8653714671523888,0,0.0,0
0.882,0.4683939691961887,1.2699215874854013,1.1568082472526209,0.8292987451238564,0.5397802061842767,0.716061713583351,1.385665166174494,1.0361130551459823,-1.0897475452694148,0.7576941612181808,0.08951833442592494,-0.25949137111880255,-0.7900771158843746,-0.8986162579677694,-0.15378592485152523,-0.24667510453174982,0,0.0,0
0.942,0.4770222323586893,1.127375606228944,0.7641672991643845,0.7086215381434254,0.5192811177970793,0.4463987384364842,1.3043112141736342,1.139560477542875,-1.073882084742323,0.3911955097480575,-0.7458465964075373,-0.5134875949337238,-0.8216070163561348,-1.314797557682138,-0.2547418705451386,-0.003134619417782892,0,0.0,0
1.002,0.38831928240396585,0.9446774087343751,0.5690369538600537,0.5383463236335726,0.5238534180354277,0.3055782016195543,1.0754468472391778,0.932929469665023,-1.261207222217408,-0.11778848880176569,-1.0931269038987073,-0.875662513714203,-0.8148071730325137,-1.5386660339781637,-0.49813704829569777,-0.4231805196394789,0,0.0,0
1.0619999999999998,0.4393573976080482,0.832447792815897,0.6336531332660851,0.3769457080656197,0.46288294709582356,0.5780589257799391,1.1238840375891423,0.6978437825947609,-1.1936850076493257,-0.38422328029231184,-0.9577639067609537,-1.189769456887724,-0.9190839975038458,-1.2169643267188535,-0.4451570742654114,-0.8815900384191937,0,0.0,0
1.1219999999999999,0.7014396283040052,0.8710929782826894,0.5801303794317407,0.41315572850652305,0.37271775096357485,1.0077196978858727,1.1685179655685745,0.6303952068244949,-0.6823313259864556,-0.2803480338881466,-1.0823122749413951,-1.1280311187066925,-1.0659706587872102,-0.4480947269263946,-0.4012320106407732,-0.9993042816315528,0,0.0,0
1.182,0.7033791191497023,0.7879297295908516,0.473590164958669,0.6186777507058878,0.3668781856217861,1.0157773631388514,0.8424701034407311,0.6320314326236007,-0.6691242387140816,-0.5056714358008364,-1.2854015962447438,-0.715879397429728,-1.0761915838521656,-0.4065035085906348,-0.8810103642191415,-0.9964492407827885,0,0.0,0
1.242,0.5160487525531925,0.7059048971526385,0.48568549627580115,0.7488425226052794,0.5243315912050037,0.7374534975608318,0.3449627500132946,0.6798066106313452,-1.0062278471015544,-0.7061661472032276,-1.2594266325520678,-0.42258131231250534,-0.8375677686740558,-0.8315645896509608,-1.345905263732513,-0.9178053643948609,0,0.0,0
1.302,0.514824210397917,0.7009293556043495,0.4332248389584986,0.8972601020792981,0.7656509111396691,0.5873502559273025,0.8460284409890272,0.9519131345155477,-1.0016576690939327,-0.7201925906251652,-1.3810859493162493,-0.13858688292986487,-0.44083910557888556,-1.0786192957466632,-0.9264961134667794,-0.40456956712640474,0,0.0,0
1.362,0.609185890423579,0.6246975505827268,0.35612975390141294,1.165764651172159,0.9237548868713203,0.47039498884486397,1.7620153105759633,1.2517209191909384,-0.822286616225707,-0.9324319623113523,-1.532479927428778,0.40546652470734906,-0.16317744727730232,-1.2569351455017994,0.1482376888261062,0.2112076994288816,0,0.0,0
1.4220000000000002,0.6082372867662322,0.507942857486789,0.5330642175891152,1.1517547931476317,0.7596350825339595,0.5943004164098069,2.1137959014858954,1.3072816463686385,-0.8255246858753681,-1.230108538777457,-1.2223728811277252,0.358350885870314,-0.5121982308641762,-1.0937462467761594,0.6602114702367421,0.33284825174097615,0,0.0,0
1.482,0.5252110922632753,0.4427815626927935,0.8278719069648232,0.7987741691045118,0.3801438963247823,0.9427664306013963,1.7341527723741677,1.0602689741371256,-0.9824168923008211,-1.3973435451503582,-0.5850007886189149,-0.390588064050134,-1.1010650057446474,-0.5427482702685588,0.19513162467018183,-0.19429669418684345,0,0.0,0
1.542,0.8179360975359867,0.44585626043521254,0.9080623991419406,0.5341190182304418,0.31701851052314756,1.228818714345792,1.197246055785456,0.8147187627857659,-0.5321456462511948,-1.3899929733058707,-0.38421541133046144,-0.8637455653796291,-1.1715770864827662,-0.03300440858044646,-0.39879763103342936,-0.6561274484329785,0,0.0,0
1.6019999999999999,1.5419478728083396,0.6614581934066432,0.9061186882895632,0.5371142950397159,0.5689436385698745,1.4449424917440086,1.4223293631471825,1.0174433005844976,0.8251971741445093,-0.8980862913585418,-0.39622218633012896,-0.8777412526853209,-0.792652809859558,0.3157747027193126,-0.18661737544733256,-0.29242777203668413,0,0.0,0
1.662,2.052747498567484,1.1225163223872812,1.5028388605637875,1.280338989094616,1.046311393020497,1.8563736306163638,2.2958151153041912,1.2245695477163216,1.9590765683739466,0.26078237953433764,0.6649275102069235,0.3181183900248225,-0.04492860894381676,0.9530066173090835,0.7976727118438912,0.1744168392051306,1,0.125,0
1.722,1.9598380862755906,1.4509224938338436,2.0826252348215664,2.2409445697660404,1.7225289553649523,2.2445357254528893,2.715331776754064,1.1862426730292732,1.7584692508401547,1.2236183506347367,2.020645151236438,2.463535349788707,1.0522130602780435,1.612727996507824,1.329226031447112,0.09769459948977378,6,0.75,1
1.782,1.687988812531515,1.4648228996810193,2.23580859535335,2.8445472798518283,2.7809006959641427,2.2952263315399857,2.4706438534632595,1.0870942886575936,1.2568344892546088,1.272015870883285,2.3850373335086084,3.8400959290573913,2.739199030300951,1.7020603172556559,1.0477638694283842,-0.09795607391544285,5,0.625,1
1.842,1.5894304367494343,1.2104487550347005,1.908855048015589,2.6138045614521914,3.0731532719297983,1.8628282400621263,1.9808558860826924,1.0598615319217266,1.0675053719696088,0.5613496425740383,1.6210756293007984,3.2647243004802697,3.3061186706395316,0.9120718182734358,0.48968548543700235,-0.14922923071962846,3,0.375,0
1.9020000000000001,1.5964021616600494,1.337088248832796,1.6098420953697012,1.6609285969439647,2.3395234421210747,1.3457696823497973,1.3317124275279042,1.0729786675425537,1.0600813911056781,0.7822987913312621,1.035473378110403,1.1629746016824865,2.051706075138266,0.12499840259329402,-0.33844182209831414,-0.12319091880436395,2,0.25,0
1.962,2.320119380274483,2.1652751028372133,2.009688799580695,1.0814069120929042,2.080471589713044,1.996915029641301,0.6057003359676684,1.1192657243958721,2.324959747623104,2.8958639334123357,1.84158455203167,0.2084667094195504,1.7088604276262263,1.0231878781929968,-1.0687102382500462,-0.0353688584457209,5,0.625,1
2.0220000000000002,2.5175765012837963,2.2492047913588986,2.0225181701938197,1.4892211263702984,2.349973339841809,2.5171994425165827,0.47662172495231486,1.1483135232306703,2.787594761675134,3.1834257677245525,1.881562337887524,1.0121650136331402,2.171683890871492,2.038156307015455,-1.1745487922868105,0.020895862381931946,5,0.625,1
2.082,1.7363583187143283,1.4726376021086134,1.5993568442274895,1.765622420250805,2.1316366566479705,2.159539483798745,0.9720265104120139,1.0082750105617373,1.1671092140718238,1.0868145931992275,1.035857010640364,1.6537846854770184,1.7929002087943429,1.4156698188277328,-0.7187434305421722,-0.2681897610827763,5,0.625,1
2.1420000000000003,1.100654052075624,0.9820513741776257,1.5195656970652232,1.79479307788282,2.0058433820375408,1.5496677002541452,2.423975472269168,0.907858170654675,0.12772702903733715,0.013250729532645394,0.8930205693749717,1.7144400876449166,1.6046186421649529,0.46634342350131125,0.7274965228289553,-0.4491123897794746,2,0.25,0
2.202,1.1610833278204633,0.9102716342906276,1.4645121108286991,1.7308295948719818,2.1125587844228337,1.1858349001199795,3.8020334957710826,0.8493623747867357,0.24022567370193912,-0.17655379759270654,0.7703312298651817,1.5782412922462727,1.7783374588360334,-0.11809002858898258,2.472046900980429,-0.579969267389686,3,0.375,0
2.262,1.5411887291998543,1.0328004745614048,1.3787319289343354,1.6157167228482128,1.8531462571962705,1.330273569273531,4.091488118990564,0.8950400858499099,0.9312787544118332,0.1003124584465142,0.5935796437259298,1.3448758847029862,1.3332626323644103,0.07169157669956384,2.865176029394538,-0.5432294153031453,3,0.375,0
2.322,1.786444065232997,1.157601872421846,1.3527579689961304,1.4384373127894607,1.599799467935226,1.8997814883775583,3.5558134692282737,1.942528126495305,1.4413012535629808,0.4349840338512967,0.5271500395711657,0.9551789251523871,0.950291972706629,1.0089231308341928,2.26062932031074,1.1938567741035733,3,0.375,0
2.3819999999999997,1.4782295792182172,0.8958487538571563,1.077409350566742,1.064755924402243,1.4454439228333817,1.9384904207467761,2.879821008602447,2.6468690440860603,0.7608986720688841,-0.3552387435870133,-0.11456067718808344,0.14153634121989392,0.6819819150726665,1.0933428304616026,1.4788526359218699,2.903863018527239,2,0.25,0
2.442,1.1394081718268798,0.9889305673863289,0.9846761542723468,1.0189337201704014,1.5104173488495627,1.7177585031127356,2.145495488688802,2.1958111272019223,0.1898904985814577,-0.19037111371734197,-0.28254914211701115,0.06536908592355806,0.7669856003522334,0.7487324417149144,0.6556055226488456,1.8655499794465162,1,0.125,0
2.502,1.2580265058828393,1.6013425910616914,1.5896171478346144,1.4784091935802963,2.1412493517478595,2.5914338155255296,3.2712771209752356,1.7113828903612567,0.4281168640841438,1.5103677797490824,0.9071588921411055,1.0050647332772156,1.7588958205300884,1.9512419807010435,1.5911215667634504,1.0720333356182883,5,0.625,1
2.5620000000000003,1.4040117966987529,1.8435693350916698,2.2173576519290616,2.0144632824003534,2.922160003150192,4.337597978941232,5.397707876357333,2.5323119263428135,0.7150539161033928,2.265683026644988,2.2957306272162,2.1111658768414325,3.065888783364351,4.770421230330329,4.132071069525958,2.6019584332761316,7,0.875,1
2.622,1.4436201084440503,1.6305646247862597,2.0391371787877524,2.015938109601651,2.7579490202168753,5.634146319825148,5.958946130991682,3.3934452970562203,0.7924618302756125,1.6767107032051032,1.807017486997995,2.104908902571904,2.702475058494658,7.08733749121929,4.948798846260675,4.3949589945190475,7,0.875,1
2.682,2.0540465830740984,1.5705143250653564,1.2650957590306882,1.557095312178289,1.8854154565462826,6.580075503286431,5.5570247648525966,4.169771291439074,1.777770583608941,1.5267285689082388,0.27798554731784636,1.1971236831351313,1.3479533259233152,8.615123769219744,4.50632823760168,5.926811263022928,7,0.875,1
2.742,2.723104222679835,1.8628477169732867,1.243456470192783,1.5830014562269206,2.112233694846109,6.549841900707746,4.74444619284792,4.467751831802694,3.2057462652059634,2.29396222340996,0.26304679924184343,1.2475833724161085,1.711948155073349,8.529305527437048,3.495939260247242,6.542259822323345,7,0.875,1
2.802,2.4443927707739967,1.9830278626493973,1.811392159349988,2.0776460750041545,2.4351633533846817,4.797791122783595,3.818042429223696,3.748660330197924,2.6151681585355253,2.6332600072410868,1.4196490799098374,2.2317379603389296,2.3213164902655667,5.397330718134024,2.5558307209113464,5.002998871392437,8,1.0,1
2.862,1.9548286166484585,1.7257103770318059,1.9084274395255694,2.194196498473703,2.550707874179542,3.404947777294611,4.206663303495574,3.064415740546871,1.78138851567909,1.8960488322160742,1.6615762537930368,2.505282073913205,2.504811809267291,3.4828411423946277,2.985169282138417,3.7942843691122548,8,1.0,1
2.9219999999999997,1.9132463355404383,1.2660531237129962,1.527799025697972,1.7953536873772216,2.698733124980068,4.12833750821822,5.603264401790913,3.0400814363481636,1.7000948800977251,0.6975837796069214,0.8796703682641803,1.6729417965648683,2.755232648604754,4.598681150706262,4.439690615861575,3.750579895973452,6,0.75,1
2.982,2.0296984538933582,1.2505992531550303,1.6785716572631815,1.7288342688552574,3.4748370742301598,6.203001939174659,6.704631209732162,2.9574374315788794,1.9052864342592706,0.6555118340244109,1.1549117606609725,1.5553712585333843,3.857559297428073,7.701701107130696,5.752767764495133,3.590161669709786,7,0.875,1
3.042,2.3672659093192756,1.8004523936991397,2.3232165096853685,2.0845524293713065,5.3383632417053795,9.800137326678705,6.3537753509777914,2.9503592555360965,2.569938547436299,2.046849080062414,2.4936144272214573,2.283178034001743,6.841628740635277,13.421937736970358,5.366258016907557,3.575874082260073,8,1.0,1
3.1020000000000003,2.145134027138694,1.8929135437446112,2.4412758473179244,1.9544882958782956,5.573188788627617,10.932435753461782,5.9921804348490095,2.73658163255263,2.0713289078772945,2.3561901979809745,2.7886948435105503,1.9725948472134187,7.327153528704051,15.592635279081554,5.0009843625837105,3.136669342292745,8,1.0,1
3.162,2.0865382376957764,2.086595218848672,2.259564370276152,1.9798161808982815,4.433457499553189,8.719466646319722,6.144661564245827,3.047435315175482,1.9241812205443722,2.761795082151077,2.423664204833539,1.9715100961429537,5.53619966587129,11.845851224736188,5.176571625482784,3.6468451848662107,8,1.0,1
3.222,3.0985749323900484,2.7335242708053813,2.6616565743627985,2.9437291995730117,4.6030762455181895,7.013487180507859,5.9222879525665135,4.077174694118577,3.817827058649723,4.521777042867174,3.216394929502614,3.8880306801836486,5.838985330307701,9.36506386772539,4.9218564638590285,5.685283019135972,8,1.0,1
3.282,3.8110817461501347,3.3234994696279903,3.855302410716104,3.836811201106685,5.410525714444723,6.658673843858738,5.773637805288269,4.846890538385311,5.361785966042873,6.062379845919115,5.506739817262338,5.82508683372708,7.1678683001673855,8.774827071369401,4.741440424709546,7.280028497317549,8,1.0,1
3.3419999999999996,4.235946005857528,4.032799213344857,5.342996098416583,4.593628728731563,6.286450467052464,7.017672548203254,6.885114934453597,5.658369374566127,6.16633833887396,7.8895546103240735,8.661929864536026,7.361559555410075,8.587745008644378,9.319637519498952,5.9004546512757905,8.838005303622811,8,1.0,1
3.402,3.6198281450527263,3.5085591281029647,4.785324646700001,4.112001928620856,5.501043223467966,6.7166342370659855,6.910355508307406,5.1265927149081385,4.5682036365745,6.04234224583563,7.036045184196524,6.098476265561152,6.905517453834357,8.663151266206834,5.889622267016146,7.4515897966958144,8,1.0,1
3.4619999999999997,1.7658218937433898,1.7714240110094888,2.3289144309513996,2.2697482532946625,2.8664185984581048,4.329499244986386,4.456541415786465,2.8420628481029766,0.7361020382454292,1.6405233759073907,1.9562068507822283,2.127052153209859,2.3288894460079854,4.354992908643466,2.7811665322990375,2.5909786034560427,8,1.0,1
3.5220000000000002,0.4425019998204258,0.9553079589414372,1.044868992498607,0.8256908192422143,0.9285204015378804,1.8882277639850096,1.9321692236955927,0.9815004712784012,-1.2148177261701718,-0.06558489409413026,-0.1094160316199491,-0.5881628685143042,-0.33638243779894134,0.8133398633930349,0.33238677918100645,-0.5019338252339475,0,0.0,0
3.582,0.30912314595577706,0.76001014202815,0.8212029680955869,0.298682833535886,0.4763969252396441,1.0073226888898386,1.1728545616717025,0.468555395731519,-1.405891896500845,-0.6038922230645983,-0.592549041341505,-1.38516750086254,-0.8931774681548741,-0.4235871978731058,-0.41205031156557026,-1.334754572760149,0,0.0,0
3.6420000000000003,0.46606926293753,0.5492814151131756,0.7228930824976242,0.5635228082347354,0.5219597174887989,0.8506592839776672,0.7824966134447532,0.42953841971047807,-1.1265386866173785,-1.1383528684716633,-0.785854921506444,-0.9043011386323068,-0.8198664182301046,-0.639649779663733,-0.8623686563486395,-1.3974647009331271,0,0.0,0
3.702,0.5868831064166885,0.6135200681889822,1.0271789753738847,0.740266672091151,0.6894304654611773,0.8363900081034584,0.5565224176304777,0.6595925996275207,-0.8657125707306622,-0.9913442373559335,-0.198165490787396,-0.446137673356719,-0.5639138388642834,-0.6644477359002194,-1.0768422709323877,-0.9912912375551581,0,0.0,0
3.762,0.4802258399600137,0.8066778814203633,1.3717241665004292,0.6583404528937753,0.8954159050633207,0.8915518189737827,0.6775707936552666,1.0233656067064112,-1.12650333515548,-0.4573738472825693,0.5682953332240507,-0.6234604974951069,-0.2136974687287896,-0.5818975608784764,-0.9513580549389125,-0.2711878807294274,0,0.0,0
3.822,0.2937905914544638,0.8838527606154979,1.4319043834043947,0.6825293968044903,0.9695618022274534,0.9468446702073519,0.8044975712247556,1.150126769968301,-1.4436794274044988,-0.2423825183437561,0.7065223516485571,-0.5858930988272442,-0.08264054748416134,-0.48641110205623805,-0.8011421560137552,0.013757816426119627,0,0.0,0
3.8819999999999997,0.487316189889028,0.8009704892389676,1.3084459007493239,0.9412895805699012,0.9726910266909489,0.7997378531399738,0.7520571781490073,0.8958675269560697,-1.125357023072232,-0.4766460947902302,0.4513483705190773,-0.057617514468284343,-0.0800704356400629,-0.7371990577999958,-0.8632061021094918,-0.5458817378510429,0,0.0,0
3.942,0.7120799235771402,0.6743880654573254,1.0938290392208274,1.015762932642724,1.1868526251910363,0.843985078224236,0.8716447353064533,0.5496026114295401,-0.631861375817052,-0.794174642788882,-0.030861011428672026,0.11149358130958459,0.24651719629801203,-0.6822095685261793,-0.7514160426519846,-1.1772535301333151,0,0.0,0
4.002000000000001,0.7380584916316788,0.6879169113545424,0.8200437273078326,0.7629114758496217,1.2960958761108778,1.0618984823702982,1.194113112087565,0.4149576931846892,-0.5752906034955886,-0.7571995046564298,-0.5787788831163129,-0.4849905849294314,0.4472086946237881,-0.31518828550356853,-0.37719019934415116,-1.4226006371856788,0,0.0,0
4.061999999999999,0.574485262576827,0.7220906330034477,0.704211158944626,0.4679552274853479,1.091742203681952,0.9297939115241907,1.1029878873664303,0.3630328853768505,-0.9161110363189001,-0.6649593111035443,-0.8048202708099909,-1.0094003059801133,0.09390787902189542,-0.5681322151575531,-0.5124278835998819,-1.522638917658633,0,0.0,0
4.122,0.427943995230551,0.7769127013090825,0.5751073943162611,0.430898453242323,0.7598539246333128,0.6642890066835697,0.6338058494650477,0.41105644882127296,-1.1698498334032355,-0.5268795837313808,-1.1021694939189954,-1.0792247867525429,-0.4798509987315127,-0.9455270717322509,-1.0481191995694987,-1.4387034307185,0,0.0,0
4.182,0.525934798624441,0.8961202194856288,0.40082452595782475,0.3601482492998217,0.45719146455885473,0.7278275330892705,0.3348755500629409,0.47546804303246637,-1.0039131354386344,-0.217356093550184,-1.4505485533960574,-1.2371948881307873,-0.9423017930639196,-0.843266990173479,-1.327307306790356,-1.3034656517844199,0,0.0,0
4.242,0.7863906125296065,1.029895030135244,0.5185804579733347,0.48046591951590834,0.43282904522535715,0.7548712655794627,0.38260642965092906,0.40967682944621003,-0.5119393887946119,0.13213738201679628,-1.2485796823557147,-1.040447580251343,-0.9760516079281628,-0.8003056610982117,-1.2953006461544483,-1.4477074663438725,0,0.0,0
4.302,0.8367086049460046,1.0626015450389268,0.7251254295056608,0.6365515078197486,0.654964531276657,0.6983180077520196,1.2579086429976067,0.660433166964046,-0.3890539163892823,0.22516975508782813,-0.7766925065244489,-0.6637053835371562,-0.6330055809063134,-0.9052705043043963,-0.5437109929971511,-1.1139383416412159,0,0.0,0
4.362,0.8020894138818613,1.1284188393280208,0.6895404236899249,0.5207170499876396,0.9252235315363629,1.2164893470859346,2.7359582979302184,1.5678823844822511,-0.45515204512962587,0.3827353180109721,-0.8626024369090798,-0.9521142780523698,-0.17438813549553878,-0.21746216315730071,1.1469672327503428,0.5580832843903826,1,0.125,0
4.422000000000001,1.0030336607795256,1.2982502309932047,0.4814803451365852,0.3665176718239364,1.0157179938205392,1.5646647896970949,3.2266203889829583,2.0670772110579727,-0.07741599664803452,0.8326303727279353,-1.2980601745640372,-1.240292581560264,-0.008770672016344993,0.4971586353436659,1.8764122770895442,1.8012310287665168,2,0.25,0
4.481999999999999,1.412778970406761,1.4144264332673069,0.7940583166025859,1.0144037557878502,1.3638004044584633,1.4208588522305587,2.5207351568930663,1.654315178005106,0.6725045208229726,1.1417536593386297,-0.823624579075715,-0.2188321764540093,0.4487160842949323,0.2692123161564645,1.049414849667705,0.7995544315700424,2,0.25,0
4.542,1.859936832320918,1.4984266670695658,1.4593328883375576,2.0316863578465605,2.3247420355272745,1.4133400353609713,2.1626574797087548,0.8241180936049267,1.5621802737138921,1.3562279140397069,0.629291311527871,1.9688071160333251,1.9700393337221989,0.2652242809088903,0.7053390760545897,-0.7305894419848044,4,0.5,1
4.602,1.7506095533879527,1.3342033484989935,1.6280267179047772,2.384647892875383,2.5116795095719624,1.6900378225698818,2.8978081772347744,0.9889920691503241,1.3160886754412349,0.8806191645202269,1.1018407167406272,2.8822191213910457,2.390069655589101,0.7075084294450522,1.481824442307038,-0.4783629310758471,5,0.625,1
4.662,1.1654085011289497,1.201038080406827,1.5834287273905538,1.9032683048085497,1.890882665070363,2.084676732338991,3.087040082099012,1.5788679133019645,0.1858624785044168,0.5714889345243964,1.0114802626867856,1.8356934227819457,1.3831781995236365,1.3375807488305191,1.7173704868549828,0.7942115981785339,4,0.5,1
4.7219999999999995,0.845658276838188,1.2626295396205618,1.650189933980373,1.2722923004337972,1.3920450981898,2.073875335869201,2.3764605707625948,1.7266855878471206,-0.37462299851177994,0.7421032724797558,1.155500133350836,0.5906536670713239,0.5639869353209552,1.3130729337735512,0.8929753276920828,1.1595316404285938,3,0.375,0
4.782,1.2529749612210939,1.425083506699048,1.7762911213403372,1.3951108131243655,1.2164869052027858,2.012853496763638,2.2474621026773205,1.9094915014175082,0.2808261520418764,1.117364849656641,1.3875512227661924,0.7606795197938393,0.27496625759331983,1.1801347108817153,0.7860471646698203,1.4707555173291516,4,0.5,1
4.8420000000000005,1.6117774691061695,1.7085538355928023,2.106906986815881,1.8797622468827655,1.702101616165662,2.966952400968749,2.401434202092855,2.248930584579855,1.0792971503309765,1.8796098853941883,2.0730827438687727,1.8066869193935353,1.0228213646182893,2.6205135446579666,0.9806861644846135,2.1581598017778503,5,0.625,1
4.902,1.3107869362068658,1.5104559843284,1.8330570591135402,1.5791390574650075,1.7163740924028463,3.056187103129148,2.4459671479185947,1.946243500369879,0.3976339467238604,1.2615298847850238,1.344577967667638,0.9916838129010892,1.0607191251477484,2.806346243463578,1.0226634101739085,1.4731419768643754,5,0.625,1
4.962,0.9774304934639114,0.8933563717595961,0.9526291419219278,0.7061446276545643,1.0889878332364855,1.9364527637737772,2.8995892614848744,1.3285391168878158,-0.13585422733553995,-0.3785430553330728,-0.4940377217607508,-0.6251564805943783,0.030942307905916577,0.9271744724662333,1.5281567598146648,0.3593120017323226,1,0.125,0
5.022,1.530235558588848,0.8623452218020975,0.763511084265773,0.8394594231763071,1.2769471978595779,1.3541240697486623,3.536906828996033,1.1903468863540787,0.8263059348114448,-0.4826897789100613,-0.8009022959108218,-0.4369308162892076,0.2532119633750492,0.13361772248116685,2.2305544318099497,0.10688705841979758,1,0.125,0
5.082,2.4362279959241064,1.724492878146312,1.4519260823656244,1.8005967625548338,2.716015096487085,3.5057243150424173,4.257446646752894,1.4213837571276338,2.5829368458165263,1.6427319507682023,0.5669814206548915,1.4442302240193854,2.433344569624499,2.780451700271953,3.0416338144194075,0.5205809390499739,6,0.75,1
5.1419999999999995,2.719393004008265,2.185744078668359,1.8261481669650381,2.447205339867527,4.591344946353076,8.426798071994787,5.04835162709387,2.1035591263553743,3.244492123124726,3.150412881209356,1.524247342934186,3.026357119998583,5.629320471803514,10.422532675739872,3.92573693006914,1.7924776558171196,8,1.0,1
5.202,2.1941037600431503,1.8223683407163607,1.5557957142374705,2.278489426313998,4.836511649519189,10.404680168114435,4.639202292582918,2.5922192782961972,2.172128494372449,2.0484675711218414,0.8874659565837274,2.617001757201558,6.067797152039264,14.59448887732406,3.3369058198053136,2.843465003253705,7,0.875,1
5.2620000000000005,1.74636944708077,1.2090962815719113,1.160013860181188,1.5132149494217708,3.1855702413397378,7.647428861912648,3.2934748848000384,2.4254191139801744,1.3715083374663806,0.5395945595614222,0.12396673097058707,0.9346912770631164,3.127546908335806,9.386431455774337,1.8881872055259457,2.5032862787678853,6,0.75,1
5.322,1.7394372973856818,1.1978290377920617,1.1816727984896744,1.0950497005810709,1.9950777832178266,4.363234283195648,4.894902197304426,2.2270896208755926,1.3665877650648275,0.5446579115577544,0.18156500553453336,0.22691942990186634,1.5738698444928645,4.948853395309528,3.3604590878883442,2.135630350678599,5,0.625,1
5.382,2.216455345000336,1.751737049955958,1.6791217131192335,2.2849491587208144,3.6007413889191415,7.1775860327690175,8.625676993232627,3.2047191246482027,2.2009296360848984,1.894842983875401,1.0987785216068484,2.244114495577973,3.746258425123252,8.736198951865003,7.564724941117645,3.827815045958006,8,1.0,1
5.442,2.6805965929346898,2.1702108883410816,2.279594141960545,3.3380132908359688,5.038892684280238,9.622621224480719,10.42936390860993,4.003094988943114,3.1523710094925192,3.068440963713041,2.3961587299269667,4.719486802944245,6.43257847236143,13.385442582514964,9.876081563069933,5.554587728089548,8,1.0,1
5.502000000000001,2.2288639529425986,1.7795225617725232,2.009250672256585,2.7938123120390155,4.169149533649291,7.853497693442911,8.145159942977092,3.1800156074790165,2.0851044425568372,1.808150413238921,1.684220251787121,3.1968112582749924,4.587929298794552,9.815123918176218,6.723233359652743,3.5046645675980455,8,1.0,1
5.561999999999999,1.2199056759646432,1.0505396922415546,1.1050326250617664,1.1627872263944727,1.9927504325653318,3.758707164288466,3.668863298662535,1.4793002543417395,0.2484680391157492,0.16488516055851485,-0.05254762838025164,0.17524963212639189,1.4737964198384494,3.5855195987400013,1.771736815721738,0.5046577452831019,3,0.375,0
5.622,0.8099006787836533,0.8146761598173247,0.7826820724558244,0.6495081199211373,1.2968316730004208,1.8615342211054764,1.1810053779220613,0.8523005989368228,-0.43273834462181093,-0.5162311603911428,-0.6473261255978952,-0.6238388655564965,0.38480093337937266,0.868793491970442,-0.52178339064292,-0.6119924473376525,0,0.0,0
5.682,0.7131308385860282,0.4735051888798505,0.8479297120338287,0.7255253516234214,0.7836475363784116,1.0671053191248807,0.6301253924997978,0.5317378730355925,-0.6200784572115102,-1.4355432911907784,-0.5232779982017891,-0.49002246594649734,-0.45912201614525716,-0.37859973820396936,-0.9933841275127312,-1.229323122512146,0,0.0,0
5.742,0.5606700201340604,0.6423531515828446,0.9705747019742761,1.1085273893058938,0.5681991909555927,0.6586590550159979,0.659015833925519,0.40864168110453125,-0.9431793767626647,-1.1086699106201336,-0.25309447322974793,0.22693948390437887,-0.7471150922348956,-0.9650517670224034,-0.9637666923850383,-1.4338382769921816,0,0.0,0
5.802,0.35289170663389385,1.0884422430744565,0.8843008223557574,1.1939508835083963,0.6508044506767982,0.7628865554841895,0.8453070870365076,0.5796335890920072,-1.3358156378098698,0.19616832068222334,-0.44673458856118103,0.42986076174319526,-0.6089292765252712,-0.8097472162956164,-0.7646599121208815,-1.1403907674984073,0,0.0,0
5.862,0.3852234069389463,1.1143043254994314,0.6364502284799689,0.7565976582008065,0.7776978024508743,0.7972146484564594,0.8998471908666376,0.8415030934647484,-1.2959458322160513,0.31597940214223585,-0.9898779390004884,-0.6165013548779092,-0.4081715950221476,-0.7484393691421962,-0.6976331035327271,-0.6130531548986352,0,0.0,0
5.922000000000001,0.7149926678795393,0.7983682847610076,0.45275897043611213,0.3012875633339761,1.012054408297011,0.5919194115516437,0.6771376394089017,0.7754779191793186,-0.6894690777214884,-0.5094393511856968,-1.3336815575939942,-1.35261285064791,-0.033884671409362965,-1.0808562453223387,-0.976750755557268,-0.7964620496796716,0,0.0,0
5.981999999999999,0.82353307834487,0.569974249962965,0.4899994620282642,0.27780026526195173,0.982420253595663,0.5851064128186335,0.3740326269070562,0.39808895845286524,-0.4222744952876971,-1.0821316256284397,-1.255754925041208,-1.3828325945128712,-0.10889793387053963,-1.0819416970138702,-1.3072592281535529,-1.5464193686860146,0,0.0,0
6.042,0.6036529823741666,0.41571183619254015,0.4743867763684412,0.3317564941887774,0.6065130685379252,0.6029282065980586,0.3595811718579406,0.24725554942518685,-0.8875682433492665,-1.4890525389296316,-1.2950616674617363,-1.2773820954342987,-0.7657940105588633,-1.0522771338726848,-1.3226749350920604,-1.7632733545008368,0,0.0,0
6.102,0.4143573611916245,0.3583535392736452,0.359188114584215,0.4044746552552699,0.47156329514127215,0.45539743240313213,0.6312307989668974,0.39185031369173706,-1.1948355704488027,-1.6232138603779263,-1.5311718637276979,-1.1273214548564077,-0.9301731681139148,-1.2977586935157697,-1.0235708641798107,-1.4935683125411636,0,0.0,0
6.162,0.5323285520893132,0.508856140575816,0.4344007371981539,0.5290755631493936,0.6450254373984321,0.5102905126108208,0.6999113581665257,0.48512485434772123,-0.9892976302176396,-1.2619918073410263,-1.4014714964746215,-0.8883149379076,-0.6296159051836756,-1.2290401823865569,-0.923191036110163,-1.2828077485255938,0,0.0,0
6.2219999999999995,0.7604017747568351,0.5779695862912508,0.7056552634090769,0.7974194454961967,0.6618676044239302,0.8042855651044188,0.5246184124837572,0.6005290831731542,-0.5502314502211281,-1.049928791397844,-0.853188733337329,-0.37033345761257147,-0.5908423983455359,-0.7521223259122856,-1.1271541840478374,-1.0716258186957812,0,0.0,0
6.282,0.9414977540988376,0.4747547488658735,1.0942507662643775,1.077594235829632,0.6211146847737239,0.921658471245523,0.4010480626945351,0.7174806050267727,-0.17869690786613876,-1.332527777083696,-0.05084300914389225,0.23044469869747305,-0.6540698814573548,-0.5243792031042894,-1.248986119752507,-0.8261397019182032,0,0.0,0
6.3420000000000005,0.8820838461571802,0.40610013146260315,1.2447108801299023,1.0138205423264974,0.6093658816015729,0.806518911677996,0.44666165131082547,0.7085006665075707,-0.3206836180040739,-1.4971422096368514,0.3148792044826922,0.06298548607567604,-0.6742702029166722,-0.7240322927462293,-1.2011246336043808,-0.8465946317944958,0,0.0,0
6.402,0.6106597361068685,0.53737554946984,1.0704230497243767,0.6335553987396236,0.6270151947863091,0.5632284311645821,0.4939590126765952,0.58403291163677,-0.8635098043229114,-1.181769503862697,-0.06104927075299501,-0.7373028122474862,-0.6494829615505187,-1.1619034385237321,-1.1457528058056887,-1.105347676642407,0,0.0,0
6.462,0.6974191881333045,0.5965364666627311,0.7848837395133037,0.43582522126981604,0.9411323981251138,0.5390070730147476,0.510015070161631,0.5998577596525151,-0.7460101151920963,-1.0020676468214131,-0.6912171675678479,-1.0647753107528033,-0.20024949358546884,-1.2206513212538388,-1.1287453524473716,-1.0905289936047942,0,0.0,0
6.522,1.4877527791829501,0.614023007371699,0.46850601945310083,0.4978508229338886,1.6984489916801844,1.2938275660301781,0.7142530188200763,1.060289060692016,0.6560619467685916,-0.9702553299512612,-1.3696520567251396,-0.9372772668148084,0.9729072850850047,-0.14420081337012236,-0.9288207329290338,-0.26573492503024493,0,0.0,0
6.582,1.832372964776896,0.7832993158188594,0.36308696514031985,0.5918265318089944,2.03773337923396,1.7413955339200362,1.1160933135129258,1.3669152524603294,1.4949020682262555,-0.5374234222645538,-1.5377550547668781,-0.7471808155111742,1.6414144172531955,0.775878025929043,-0.48247424355551044,0.4452994708394782,2,0.25,0
6.6419999999999995,1.331123045531269,0.8110807457079778,0.5381023046776591,0.6225210314269438,1.5665670532657772,1.4298543934548797,1.193739248907396,1.235209507922735,0.3162034592646385,-0.4422219672806646,-1.176063006395659,-0.6806987750461269,0.7514405782939474,0.17875328054255477,-0.37563208153590466,0.16424380033045916,0,0.0,0
6.702,0.7023430170634642,0.8441024558680026,0.6433021142261135,0.5993443388262341,1.0269620989426205,0.7748898491045485,0.95955167068763,0.9982997536262443,-0.6648712556825856,-0.37444925429242804,-0.9314054654601264,-0.7270628117961925,-0.004504411602758139,-0.826370520340879,-0.6336041445642037,-0.274811974999651,0,0.0,0
6.7620000000000005,0.8296433104138272,0.9942156083003245,0.847975424370898,0.7624427472486367,1.2019957500759442,0.6338137891395096,0.9931267296029946,0.9133386022925911,-0.4146705445179934,0.03135800082943984,-0.553913379991819,-0.4295273024247799,0.2747738930572186,-1.0214155734012136,-0.6139281043507887,-0.4412599077783575,0,0.0,0
6.822,0.8824678758224332,0.9856800959473808,1.2373509611071596,0.9450674838849781,1.4238585529036372,1.1392709287950933,1.8926431435036994,0.8437328341497022,-0.29064186745748155,0.01843909995485371,0.2543719674050882,-0.030329650649915583,0.6596078587199588,-0.2899621666821695,0.256055900922,-0.5781792473578545,0,0.0,0
6.882,0.811844036077977,0.8587941098128633,1.2030690716047854,1.0209716116196283,1.303510631636684,1.5413327515240056,2.4929729241634955,0.9093960682300705,-0.42553103892647076,-0.3276435694232827,0.14478058148461836,0.12740466467631528,0.4274536710504793,0.46834204003131824,1.075828038042994,-0.4544059023129052,0,0.0,0
6.942,0.7546689728252597,0.6546522454862462,0.8119932000642492,1.35276394198473,0.9120292406278412,1.5883923995203881,2.277693900106372,0.9956045352698727,-0.5376011233620663,-0.8985212502964028,-0.6387370267636117,0.7416941864589365,-0.22233813702194286,0.5579732060220438,0.8262022602872401,-0.27565293674141333,0,0.0,0
7.002000000000001,0.7670796560515493,0.6386924422708856,0.9327029418064389,1.5738781210579453,0.900965818315753,1.5471566006833928,2.230056059541646,1.1802010877075777,-0.51971438937173,-0.9286212660873079,-0.3933988042932923,1.2504229212539266,-0.23339417074088417,0.49276772170590405,0.7750189755257614,0.056829521562684455,1,0.125,0
7.061999999999999,1.114564860408107,0.8400801538403859,0.9742225639501231,1.354291640748181,1.127372680215916,1.560483638801336,2.699821162153198,1.6056597363631815,0.08458355919262832,-0.373390424731086,-0.2872929296151008,0.7723530793259745,0.16420128901122025,0.5146747305898846,1.3060682519590017,0.8777840216814461,1,0.125,0
7.122,1.394638357454019,0.8460528289352123,0.6372616488884396,1.0513367108159366,1.0877268627630394,1.5510722648467166,2.7870292792560822,1.7913216175890554,0.6892918318481641,-0.35387691674945004,-1.0225769314319253,0.18704503953056847,0.10143248329898115,0.49891608585500774,1.4140912694157182,1.285913474629241,2,0.25,0
7.182,1.3276192334086225,0.6857620922611242,0.6585744240605775,0.9154803830273109,1.1262520718220332,1.3615185513038452,2.4295792384331625,1.7410931973861346,0.5592918237650191,-0.7816512863557518,-0.9993905056512339,-0.08392834799787756,0.15856257696027584,0.15673895180787037,1.0044409450927316,1.1857395782704032,1,0.125,0
7.242,1.357394597838575,0.7252951747552352,1.2466336529512398,0.9967702605891479,1.2832268972653755,0.9095397201774604,2.1715223770464376,1.8224969128398338,0.6117866246951691,-0.699560618419013,0.18009652035359047,0.05855142958038328,0.4302264933045808,-0.6468727240502136,0.7290292592946744,1.3435249700539973,1,0.125,0
7.302,2.006099287132251,1.3216364384136363,1.626955190646713,1.3658022202886533,1.3188478318344956,1.070171611762231,2.882246486971485,1.9193215377372816,1.7512898161831647,0.6838703598162305,1.1092923764136844,0.7849131597583628,0.48802919942498363,-0.5429134030084324,1.4159009914269498,1.5360905746375508,4,0.5,1
7.362,2.643493839407324,1.759827417551253,1.6275187912743678,1.5903202983491331,1.8037432769360382,3.497926263299962,4.292186399736614,2.1723866059382817,3.067039594601438,1.996523551061756,1.1107546095887708,1.2857894176341709,1.1835261573641604,2.7580530071790865,2.997676420724881,2.0130217005574136,8,1.0,1
7.422000000000001,2.542030146695062,1.5327527920711992,1.385862587590391,1.4377697153405513,2.4261950205940606,5.690186105623422,4.967097171487156,2.131796698906813,2.870748514597205,1.3267705650386123,0.5857097689232148,0.9562783127907953,2.27313441382785,7.003552720809446,3.8530480443640616,1.9171059550706702,6,0.75,1
7.481999999999999,1.998896755358254,1.2583157532175424,1.129576915236931,1.3851386852376637,2.6073530290878417,6.313572745625335,5.09225948401035,1.9098631104948143,1.8455647525545091,0.7146815248868732,0.0778284868462184,0.863570901423201,2.6058603193168834,8.218661822085167,3.988387808241196,1.4943220135291522,5,0.625,1
7.542,1.7539574285972148,1.4722076249556133,1.1408991134055522,1.6876175967188727,2.5936182016550906,5.7716809631856725,5.727010728778967,2.5665794475128187,1.380239783212884,1.2833580251738714,0.09076815550575788,1.4684702120130153,2.5754849922465186,7.314702331827504,4.68004884348409,2.6744477181608346,7,0.875,1
7.602,2.1572586594751084,1.5262832470504262,1.4403099052806019,2.06276382977313,2.9261274598074776,5.836996269770532,5.954543040425274,3.2929933616069933,2.087670962996557,1.4338142286007542,0.6878231804681172,2.231562401828223,3.096416308070069,7.410148575642416,4.940884835080589,4.212942490939619,7,0.875,1
7.662,2.5295256249870883,1.420010018871515,1.5521147057143092,2.002500641537923,2.769985790728828,5.189613076058501,4.859228234655498,3.094627702475644,2.892017965540468,1.1498679367689444,0.9570127175968971,2.091029250196072,2.796622514453208,6.1392267502674365,3.6068866719530903,3.776570649111431,7,0.875,1
7.7219999999999995,2.227012435092172,1.5592997059645701,1.5434855140454655,1.6678230913627685,2.414863211020711,3.819260791823325,3.6512242953539196,2.215930878887441,2.2433627218243264,1.4893541385988305,0.9398173478526163,1.4450563160050827,2.2667292319767633,4.145527235567928,2.3739156404704,2.0135848583364213,7,0.875,1
7.782,1.5574086611605036,1.4754374492210163,1.4206961435414673,1.4708226643767615,2.454842449298276,3.8879706927513356,3.360737836956173,1.4435455726014847,0.9160944509916601,1.1867604122202415,0.6330584439889136,1.0204830061400776,2.326449091938347,4.278222932019476,2.0487209396126143,0.49140664287202523,4,0.5,1
7.8420000000000005,1.1173432307253657,0.9897031155491671,0.9550246303563724,1.1685293274987811,1.870070674780114,3.293640937132963,2.608633249559786,1.0039679417979879,0.1626296495218352,-0.05112694413589692,-0.3924779031612133,0.4052648549222266,1.2156930692243086,3.1079219786530943,1.0747423398250502,-0.26351055196235923,2,0.25,0
7.902,1.0285627064745637,0.9819797111199562,0.573597311078667,1.0728013477397205,0.972032273084476,1.7866597908873085,1.4121746188524646,0.8364125141514926,-0.007382850195599616,-0.03136066872682342,-1.089283605980883,0.23730023309613998,-0.1802353433510785,0.47881207735736514,-0.22300953591549807,-0.6177784388168518,0,0.0,0
7.962,0.8695832643551533,1.0423062968029617,0.5736685192091469,1.2429723184810337,0.5293263794694457,0.6475069816152595,0.802697413703242,0.5802847827220082,-0.33531226333040637,0.12955661842444138,-1.0846910947232005,0.5756447013752589,-0.8297930889063178,-1.0560729818599461,-0.8114982796609386,-1.124124824336468,0,0.0,0
8.022,0.6249635769585276,0.6996165954275516,0.669943818997639,1.3917624742982704,0.41425623553822716,0.4932055180970334,0.629584977990488,0.44328339925375715,-0.8172339798963156,-0.9658034394339513,-0.876730298698202,0.8895941827467376,-0.9957421834839028,-1.2280271750468756,-0.99920693828917,-1.37303079674993,0,0.0,0
8.082,0.5251009650628373,0.27583657964449115,0.7205009978656477,1.2369450505496746,0.5602913815102192,0.4562158333816117,0.47288807347908907,0.650886281684978,-0.984204931815846,-1.8733322238473022,-0.7695519405734985,0.5184965927094601,-0.7847480321007131,-1.2965476693781957,-1.1830310821410783,-1.0220493300873599,0,0.0,0
8.142,0.6204903300763367,0.3548581931113778,0.7448846045158632,0.8277137789568347,0.7909434521284487,0.3501338245446098,0.30401108101961455,0.8109696892703115,-0.8008868942082378,-1.681379387235218,-0.7188074641533455,-0.3328572985293234,-0.39479907844821055,-1.451466515436129,-1.3683857293608541,-0.6493097601579384,0,0.0,0
8.202,0.6473164408385773,0.49047414285948243,0.6796877663113517,0.7918087610479063,0.818634651352187,0.3783728304310164,0.28904362810821443,0.715216967197765,-0.7448035927880019,-1.278911386629915,-0.8630603143894815,-0.38066789872829293,-0.33709617260800767,-1.4082371330444656,-1.3897848060238722,-0.8460664406386105,0,0.0,0
8.262,0.5164909157405809,0.5487537254026321,0.6914637222655339,1.0281743207565102,0.7610249512356507,0.5158207704476032,0.6575298978078044,0.5827709759922476,-1.0265487153939308,-1.1192595605148705,-0.8451381243608368,0.13622371414782877,-0.4267298624624544,-1.2023006970718704,-1.0407199949788788,-1.090161290032477,0,0.0,0
8.322,0.4201567626688835,0.566718102532477,0.8499308965381538,0.95810204260002,0.8274628871447227,0.6722760545061044,1.1102340674358089,0.4999275399158938,-1.1948303594586667,-1.0728907988787182,-0.5112151353371479,-0.029898161308439402,-0.3173702258114576,-0.9375239047289732,-0.4909835271166864,-1.2663090704901252,0,0.0,0
8.382,0.6087973815974508,0.6414574184658012,0.9259278680434402,0.6757446071290887,0.7825678998121633,0.6481888816287001,1.3805100203538727,0.3683333471869528,-0.8586544083619971,-0.8874942570554386,-0.3419562023985339,-0.6011356599991807,-0.40082157071981145,-0.9790738709523352,-0.15588055192495176,-1.533431849803813,0,0.0,0
8.442,0.8255366617506131,0.746437317090302,0.785295408884349,0.5703656301863289,0.5884578376656462,0.57273534297413,1.330218111861504,0.39238804490736096,-0.4097946152659919,-0.6049702371344535,-0.677930227880291,-0.7856987819022452,-0.7304556784337525,-1.0912233168518808,-0.22234923029241083,-1.4900684521230554,0,0.0,0
8.501999999999999,0.8212530827994082,0.9223298751120309,0.5707824595246521,0.6239549169945426,0.4125639443978194,0.5169100013823332,0.984386815865383,0.5216899137383678,-0.42772319647724916,-0.16858751050773835,-1.0957193092989421,-0.6774027754987747,-1.005180348445453,-1.2005849353738194,-0.6408884511288006,-1.2160648218732777,0,0.0,0
8.562000000000001,0.5649892643083031,1.0015234556821138,0.6438615688012271,0.8313696497417307,0.40614490312728607,0.3383847513987737,0.6494894132666038,0.5963112641579982,-0.9836650229382884,0.05153749946910135,-0.9503797847456078,-0.2937819777472434,-1.0148521000430206,-1.5043289260882815,-0.9757205948428261,-1.0635340545353602,0,0.0,0
8.622,0.2983934453726313,0.7480245574740958,0.6902341485370108,0.9277168611117356,0.5339943472593733,0.2540046360533662,0.5954026495847673,0.6238128859820337,-1.4285996730514487,-0.7405057694728198,-0.8377887003344989,-0.08475066487026157,-0.8074175757697007,-1.6116179899323562,-1.0325410926723275,-1.0095050489343194,0,0.0,0
8.682,0.24413886577921845,0.45121685877578227,0.5860190880522343,0.6907964316043743,0.6271244615253952,0.35194071906706664,0.9035826961550332,1.0254581227803392,-1.5219213903484408,-1.4025228407142052,-1.0555725036255355,-0.6302848706251596,-0.6450302421541411,-1.4596533885363538,-0.7477255134169533,-0.3724013801365292,0,0.0,0
8.742,0.2640245192002608,0.721774044297321,0.6276867520256219,0.5117863603482475,0.7145499749765626,0.48510371902001237,1.677525590832539,1.684063870052091,-1.4886950977234965,-0.7885282274001503,-0.9876803623722955,-0.917156506428741,-0.5075211931548261,-1.243616290833865,0.07663326550525869,0.9751430868726999,1,0.125,0
8.802,0.3892393611245455,0.9032160073052957,0.8926064706805343,0.6408561314714569,1.0080385119195199,0.7289679547558554,2.4096297154341957,1.7627416259383608,-1.266503088620075,-0.21075315719584234,-0.45482200742404494,-0.6497153028174742,-0.06258998401024374,-0.8743540628059585,0.9679287692824148,1.1872585640233217,1,0.125,0
8.862,0.5549600956896226,0.7557477728093159,1.0450628727543851,0.6359019163421682,1.1044621840671347,1.1207040977107363,2.520357151354846,1.3287222310908735,-0.9351106089749553,-0.628017986282719,-0.09334928651268937,-0.6594883290019261,0.11572015856343083,-0.24870323064223487,1.1140530716514465,0.33807223142112836,0,0.0,0
8.922,0.692768090572682,0.5419818232733126,1.149249933879967,0.5229506189305966,0.7978625379256227,1.44938072058524,2.5024682465082253,1.3098727881565047,-0.6627333907348462,-1.1447410532864908,0.11115348108503198,-0.8865704466038627,-0.44135404817353163,0.3213617805271092,1.0933009876001516,0.3182388400625978,0,0.0,0
8.982,0.8363299284467636,0.516109794434402,1.4478050135555647,0.4767868002059229,0.7264494962039946,1.395214664072451,2.655960953883935,1.6116773567286196,-0.38736249689399127,-1.2046756040763482,0.7097225908461665,-0.9787843408872491,-0.5506470967651204,0.21699652537357525,1.2705344867660917,0.92231422194192,1,0.125,0
9.042,0.8311907044313221,0.7537568925801844,1.7955347701291646,0.8429798679678521,1.4827620561818755,1.142470010193438,2.521441044326475,2.085694407045334,-0.39736182039057927,-0.6759631706341569,1.4494040276743554,-0.38719748452541025,0.5601502928438004,-0.1859156459043663,1.117381313902097,1.8090456058271374,2,0.25,0
9.102,1.08315848082413,1.2131645431721236,1.792068126409985,1.5606135343315173,2.4503856664759125,1.9027133675006587,2.154465976920918,2.8696817174549842,-0.007257636978000285,0.5109454377005735,1.4399274777062916,1.081321461251399,2.236385369101898,0.7856278472962712,0.6942538693326918,3.325189347279988,4,0.5,1
9.161999999999999,1.537793824483807,1.4094334353336193,1.6512391159626754,2.1757339374686993,3.2172757324828853,4.6349483225401436,1.6745311452223874,3.413979805928304,0.9319168180500883,1.1298895193405056,1.1507032364879304,2.449676439041487,3.568498585603655,4.734904825754625,0.14744683754960036,4.471701402501226,6,0.75,1
9.222,1.5736804538724318,1.7787935249203541,1.8224965767298678,2.536201830697334,3.5439833458987615,6.826202679739463,1.211185459462414,3.2187841256947585,1.032875519573185,1.9671737517513808,1.501925621759802,3.206414934925062,4.0924304683720765,8.84003779420513,-0.37549635828349864,4.065278056820833,6,0.75,1
9.282,1.5976391393885407,2.2165715690288654,1.7814324554634458,2.1903704346925563,2.6889292992638754,5.709200557462141,1.5742541167408182,2.8633277047259904,1.076927011963215,3.1851993223873456,1.416242449862845,2.338281782143774,2.1818345972660884,6.2408104293811135,-0.07452791559669471,3.403575795653831,6,0.75,1
9.342,1.5791732038873147,1.7690522649105909,1.3737921366709465,1.3667168811363768,0.9253784369509197,2.194334200623948,3.8938895205974036,3.040137637580901,1.0240461082052927,1.5841760615807934,0.53593329236036,0.7478780393451823,-0.5087333875119221,0.8895178079984358,2.1756230804065617,3.729466572419249,4,0.5,1
9.402000000000001,1.1452289176566406,0.697589349242589,1.0937239294018124,1.4974640596812023,0.4679434392736062,1.6507635008496309,6.852624502626443,3.602828557996675,0.14367908265694285,-1.0428448551479017,-0.006404221446769813,1.001079894087195,-1.000763374529145,0.3901084097339546,5.683593417286322,4.8102257033725415,2,0.25,0
9.462,1.2960335706941044,0.5702005920819574,1.228532252231294,1.9725961480708982,1.56963898025052,2.899856928698854,7.459827379382042,3.881011571725368,0.35914722907762703,-1.2326678405539477,0.26434011802142376,2.050633433758581,0.467638700052702,2.5043689721296287,6.556352747093094,5.406763245608869,4,0.5,1
9.522,2.025775231868839,1.3553867953177205,1.5992367574372537,2.467073734629093,3.391083084317547,4.478219992305903,5.693359769566662,3.486661570343188,1.8231298099641535,0.6613660927556065,1.0229048465341104,3.03309057570333,3.509259878321919,5.0654311051879874,4.533325780748957,4.59335377559932,6,0.75,1
9.582,2.2563070132712424,1.9407669734891089,1.7825738549846264,2.6213604324490247,4.301736736188019,5.964221746328039,4.706067929608849,3.091718275937896,2.3636521954744594,2.470785864073511,1.4337599145202387,3.364496214207133,5.362063947857294,7.580345715880565,3.5638607195063474,3.839676596726031,8,1.0,1
9.642,2.2337704179024267,1.9657747551844047,1.7324116052528127,2.2425507084935554,3.923349242116287,7.145403892131576,4.908297414722165,3.4446389893015894,2.3219928815624757,2.5717965110741496,1.3343093071473353,2.5845629670207337,4.720799062267715,9.533491691643446,3.791647613880791,4.499908378275374,8,1.0,1
9.702,2.1160766930596666,1.5756946309888153,1.5801611566442257,1.9738021397552763,3.0243658095200434,6.6322132014242925,4.853836177475343,3.4138902272165255,2.073666034753886,1.4975880527655578,1.005380419864831,2.079212895821604,3.203224122026869,8.522576626867112,3.726966907181103,4.422275069864537,7,0.875,1
9.762,2.230617911069772,1.5486804374408405,1.6236748715530707,2.1356365959845864,2.687319604545807,4.796399439294205,4.6004069713159295,3.274013538940946,2.2276674937569454,1.366586730295392,1.0544459367641708,2.3845010949393655,2.679260217901105,5.621841082432742,3.440575048630022,4.11181661864853,8,1.0,1
9.822,3.745884697406176,3.101946983597738,2.9505739793726664,3.000142752524159,4.389997615644987,5.739678920248832,4.96690106091779,4.816510768132108,4.8737876210744036,4.87280563891009,3.427611645466784,4.00765301150328,5.135350826321081,6.942566039948203,3.8324082674299453,6.913263828763433,8,1.0,1
9.882,4.716938159976953,4.278348543878176,4.069058880658315,3.648945204557607,5.6273648971433055,7.278431555767121,5.773113571978016,5.714759979456311,7.069412705885978,8.526169158530864,6.117748113568012,5.463387408595408,7.492423415117732,9.724329195739031,4.741917959506574,8.999392872491034,8,1.0,1
9.942,3.8233395334950444,3.745099322761891,3.6982401015792177,3.1690641570375697,4.618892147248481,6.6342606240162585,5.798042699924751,4.938689820299753,4.995651426172534,6.896456381555507,5.251637137164508,4.363237830725478,5.510334347112778,8.607646897514188,4.739737265294097,7.354213840720427,8,1.0,1
10.001999999999999,2.1232129320486854,2.2973859118349176,2.6089434633677393,2.2499153075390455,2.699874556527414,5.27815725450804,4.2939200321750715,3.524629158511802,1.9571214707615334,3.2535252226402274,3.1002375697570947,2.6007206909051197,2.6620940712330943,6.5208741210947885,2.767505638681128,4.5192888321690425,8,1.0,1
10.062000000000001,1.7851644900331691,1.5514892629752175,2.4526788864930245,2.016915413227694,2.4241812240276235,4.687884572069123,2.1939532913354816,2.532416133483821,1.4236913144014471,1.4594466262413304,2.822718180981606,2.1664072885659897,2.29234571609429,5.5591129900287095,0.612186879017627,2.6981748292323133,7,0.875,1
10.122,2.265430592000013,1.2950299998128234,2.4462645046381177,2.07294365845872,2.88262350984563,5.512439587905461,3.038035542419521,2.581005032000326,2.3322634440142926,0.8295954148229349,2.8045945196059017,2.280630120225232,3.0267534733965147,6.725050887580426,1.3344686630632943,2.8110951909821185,7,0.875,1
10.182,2.7051552441119155,1.6796950112106857,2.200372242711689,2.3870343144018373,3.6726843968897414,7.119332933277264,5.024085935497064,2.9633286535079404,3.227022031094293,1.6817734657537793,2.3071154900067534,2.8847291564367636,4.290137148059819,9.447763937330775,3.757158805296218,3.5966166048775445,8,1.0,1
10.242,2.5685343317098193,2.139493106342645,1.9152205721656501,2.4831031673128465,3.8688422799301327,6.60245212141858,5.09896407400641,2.726411110874453,2.881740130628078,2.9696493125237082,1.6452024831146772,3.055994850193914,4.6042292325780725,8.404943088956813,3.8805403710441997,3.0311936755009907,8,1.0,1
10.302,1.6624754949718044,1.75577254676503,1.2487345166804331,1.740552873817733,2.745671334491375,4.0694308386362446,3.2056262325595997,1.7591910433174258,0.7530386976406033,1.7074814999182812,0.044437394511697315,1.1684080279694224,2.394437816198023,4.0544570795614545,1.5363578607218837,0.8551431865950305,6,0.75,1
10.362,0.574642713876773,0.9393536846362316,0.5698885768230778,0.6910064491366678,1.1292216437445712,2.248657017081301,1.5105180530930968,0.8556339852777982,-0.9807633999238902,-0.1457317410815829,-1.1074142660969775,-0.6383812862381042,-0.020940351808133972,1.6054580558091704,-0.06119025397422601,-0.5958026481687756,1,0.125,0
10.422,0.4183613858655874,0.7067960851029671,0.5806951191010338,0.8836357064109355,0.5256245674442824,1.88849712160774,1.342297469212995,0.8907096371360105,-1.1912876582555527,-0.7320843679112715,-1.0716680006327859,-0.28759222467174833,-0.8384103857245343,1.0143710304445046,-0.2012176235787689,-0.5027104589653293,0,0.0,0
10.482,0.41408363934995884,0.6196964446490952,0.7319656651066553,1.198296430159643,0.6608107086552986,1.336886035633394,1.3006351579370952,0.8744531604244768,-1.196699540418131,-0.9430732004459886,-0.7568371701589509,0.47872970294627554,-0.6531076410686105,0.03780863590076745,-0.25254737699073776,-0.5274710649330048,0,0.0,0
10.542,0.4815048828045563,0.7361354033655507,0.8021274815750505,1.2102774163101409,1.1979541979636328,0.7826882208028799,1.0059708569799681,0.8050457670668564,-1.0839849938148338,-0.6437654483761381,-0.5995278596999274,0.5180643405903739,0.19535614221847608,-0.7889181308361669,-0.5922681518863838,-0.6530845606434267,0,0.0,0
10.602,0.6881300351986669,0.8081038919820516,0.7721476989851047,1.0746753895658658,1.643637108449364,0.8659106624292224,0.7105553531154027,0.8944856463202865,-0.6888699774205094,-0.44000961086444357,-0.6628514814054869,0.2266515521740863,0.9997726648564841,-0.6627382365043718,-0.9175086633896505,-0.47871550380240446,0,0.0,0
10.661999999999999,0.7010597048180818,0.7661374225440506,0.6683447845707216,0.8072193865164273,1.4778790279587224,0.9564442414241445,0.6232996687025119,0.8400944128867177,-0.6613796011940465,-0.5521482883338918,-0.891430960840443,-0.36127455514196843,0.6506145824360938,-0.4862988434643894,-1.0075320865571966,-0.601430610576846,0,0.0,0
10.722,0.5224313057026568,0.6664162142296087,0.5193094400492692,0.6381866403172521,0.8283794316989388,0.7112534753805906,0.7670829859531004,0.6056530153633309,-1.0026379979046418,-0.819464896943907,-1.197654755840056,-0.6575295528169264,-0.43509628956526974,-0.904896291469712,-0.8497928301797465,-1.0767482922868568,0,0.0,0
10.782,0.54755221225596,0.5430645124693402,0.4726662087407937,0.8431694654039086,0.5901071365095101,0.43258813500468773,0.8668615521553402,0.4821720007326687,-0.9576587660709652,-1.1459943240731238,-1.2861997656625312,-0.26305778895588666,-0.732122460410736,-1.3520303273233052,-0.7280614390304546,-1.2925100561748717,0,0.0,0
10.842,0.7314065255617921,0.48075588979561923,0.4484079458858833,0.9573754596148459,0.7429733806275108,0.25372161878093563,0.7132520529556362,0.5453894759307878,-0.5975559691294238,-1.3022502928664978,-1.3418151185066458,-0.0058609912690135895,-0.4686260920582257,-1.6185477569037097,-0.9389113216956946,-1.1687157707325213,0,0.0,0
10.902000000000001,0.6649117171932275,0.653374123732905,0.39998704737252216,0.7811377678344226,0.7167894712195894,0.2065921627250563,0.43316232301709723,0.531729604360076,-0.7651926458038671,-0.9003150770491409,-1.4389310460337412,-0.40440343129300915,-0.5083376086372988,-1.684318286291087,-1.2346282742315386,-1.1974344768858158,0,0.0,0
10.962,0.4018562051676988,0.7611782952526974,0.4504092243832724,0.5149031229414306,0.7755053315448621,0.21493493685247855,0.5915362721757588,0.43466508538059995,-1.2394401589694957,-0.5737470911537778,-1.3380533455868964,-0.9153523980601662,-0.4225663249779243,-1.673422915029371,-1.0845646001749247,-1.3844992302750299,0,0.0,0
11.022,0.29196842756272895,0.6302371229377777,0.4881903577185398,0.3663267463766033,0.8684696729195128,0.4600467721187436,0.8648216373095431,0.49820428280230705,-1.4365348087257186,-0.9393869118716264,-1.2527301819926169,-1.2203698754544814,-0.2529691563032002,-1.365020203403757,-0.7416044163018474,-1.274461310619986,0,0.0,0
11.082,0.22198389629284637,0.4850740243061141,0.5254597293589439,0.23663808370020722,0.8444843968353625,0.772905369197587,0.8886471973622494,0.5696567084399752,-1.5767782293674033,-1.2870552151991288,-1.182282418216097,-1.4823877448536715,-0.2909188154769534,-0.8077465016093154,-0.7069106601547713,-1.1185828864077731,0,0.0,0
11.142,0.39786873558456604,0.4962720057035722,0.6686868435601758,0.22930124106120664,0.875388495860028,0.7376869813122435,0.8776274903957137,0.5454174728540612,-1.3234999314928995,-1.2580325329177156,-0.894083725755446,-1.5033297428147632,-0.24067650232922513,-0.8742977660006502,-0.7184133795611428,-1.164448321375168,0,0.0,0
11.202,0.6298372837149592,0.6507674102982779,0.8001237572109848,0.38989495413060454,0.7502128875563435,0.4385165261304427,0.9695609118579708,0.6877255591151661,-0.8071315868534,-0.88863127139216,-0.6101576860095347,-1.1908892999331697,-0.48054833454908286,-1.3311376029853155,-0.6133172018658525,-0.9217541525586599,0,0.0,0
11.262,0.631680633969297,0.9451124431071298,1.005802786032871,0.5060594187466233,0.538546586692918,0.36741440932968555,0.9778290462317916,0.9615027771601082,-0.7883316319705695,-0.1360593062496082,-0.20425724540804244,-0.9179385166179598,-0.7974679804373381,-1.4287383748624525,-0.6045923382091565,-0.37304668439167116,0,0.0,0
11.322,0.46377908955673913,1.1468491053068866,1.1281978082769126,0.5612683832567509,0.8998008674665792,0.6765519683144633,0.8420448635199852,0.9444663210792713,-1.1137946324784902,0.44283593270538163,0.0785869049835478,-0.80500674496096,-0.3297427712171332,-1.0125138017306046,-0.7673248487848466,-0.40943285163816495,0,0.0,0
11.382,0.4274113510875913,1.1615263228863886,1.0700787980735538,0.5899328143959919,1.487163952910764,1.0728008001092506,0.7814690996826581,0.6701929295761552,-1.176049122695692,0.483077428086693,-0.04321027299382438,-0.7472079793575137,0.6874745501881505,-0.3192814412802495,-0.8331280441143528,-0.9422476060071411,0,0.0,0
11.442,0.6834050439775102,1.2235355068284792,1.3514563128313402,0.5604454755916529,1.5848483123278092,1.343970565392619,1.309648693269943,0.7089408140393377,-0.7362741112642666,0.6182724850203394,0.45384001482137465,-0.8135824086347578,0.9100620925304145,0.1356993105526805,-0.3275511234023067,-0.8944018438063804,0,0.0,0
11.501999999999999,1.1347549309118277,1.6949521770100153,1.9559272291810368,0.8215395916338886,1.4523982233662762,2.6796566786187923,3.1751986285105116,1.9614737405871099,0.11663089539997751,1.7605707941734918,1.7231332630454494,-0.3706719720770066,0.705157874276498,1.8945012137010686,1.449877042137344,1.0237773589475392,5,0.625,1
11.562000000000001,1.9429516552425365,1.8127616453187967,1.9700080643641926,1.0681052651278535,1.5785684722326074,4.570150503451334,6.8724602063869815,4.667524860613772,1.598689784539694,2.1234816258144593,1.7626695492366355,0.21326355153940313,0.9081533830589604,5.152164782202251,5.421426001358035,6.13446939395844,6,0.75,1
11.622,2.4318381465457626,1.2901615595163567,1.3929520246938831,0.9624113823485066,1.3635461226674428,4.821523643193049,8.687359932935758,5.699128057581967,2.67678174185848,0.6593019243358778,0.5481967328760519,-0.013620886584846824,0.4906612388562264,5.7205358365746966,7.970549440396405,8.864927196818963,4,0.5,1
11.682,2.0628819294479017,0.8587541881773958,1.158969807851897,1.041687883733386,1.3111029114447954,4.006322188217482,7.732710244493488,4.406176668483275,1.85831214169934,-0.3138956189194643,0.12450578119484405,0.10766396107456015,0.3921429812824115,4.468943400412493,6.865241171013653,6.110981895099737,4,0.5,1
11.742,1.3277324769731715,0.8888050059629389,1.5692836510043298,1.6153645645572097,2.0979012965158716,3.7910947565683975,5.941330260243632,2.6725160801536774,0.5112508108193724,-0.23999641485578974,0.9186205585405006,1.2487971854991833,1.6454558098059808,4.1347187942058365,4.861162810968017,2.8387837061143864,5,0.625,1
11.802,1.4005653762777626,1.0983781241344424,1.8675123932122426,1.785899875095856,2.5098172887829127,4.0823806481257625,5.871317580455205,2.1116765437306206,0.6397108783586356,0.2883041039496463,1.614834092930012,1.6781676308193239,2.4438578127960855,4.554885175740599,4.767086413994517,1.8793359308608075,6,0.75,1
11.862,1.9961868995739913,1.4699967255123882,1.8022596127810098,1.649749947591946,2.9609232954610185,6.0686124846845155,8.291891996890625,2.998488984553066,1.7979292406741747,1.2293365470493152,1.4787180027487927,1.4076730824777623,3.1128896279066853,7.470660278091306,7.377455242122189,3.4720668659386003,8,1.0,1
11.922,2.5331165641376265,1.8104704929340893,1.7471137573735709,1.8220763101595883,3.977539011269665,8.625471523542657,9.724390218495369,4.11375040212803,2.8677399426221584,2.1385587691555603,1.3673420650819796,1.7481532223072722,4.7636614393591055,11.798417934554154,9.172643477421838,5.776424198507338,8,1.0,1
11.982,2.241793246122296,1.5287971806862442,1.7252747619486637,1.7378125489296805,3.810542184842942,8.489951129619602,8.654063743947814,3.887974802488999,2.1252486199849137,1.1937312607097887,1.31994376449223,1.555691701687473,4.379545140722419,11.454724738949922,7.833907278607296,5.232830761753178,8,1.0,1
12.042,1.2645113790330915,0.9965332501040874,1.8841855837814743,1.619255479781106,2.6486716237595593,5.81544166517243,5.816789200186351,2.6086450734945394,0.30803596352661616,0.0011990718190740175,1.6271251401890972,1.3312906270353457,2.549218972752523,7.014618699493053,4.383370738387001,2.7730711738009592,6,0.75,1
12.102,1.3229351115660375,1.3967192884545907,2.0676920318390555,1.9450309114301265,3.25812970485793,5.85994936564913,3.616671839213118,2.066000220701888,0.42524420623275194,0.9671728308775681,2.029094073132421,1.9947142519062135,3.453655476873004,7.152998150800059,2.2756717957557315,1.8247809696434658,6,0.75,1
12.161999999999999,1.9782017522318844,1.7930496309510326,1.7700172129881577,1.9690800766448118,4.282720166220537,8.309113565358494,5.067487804752906,2.402022498151753,1.7604796937070193,2.1176922340662867,1.3358504688443291,2.0549055384496895,5.326301657683766,11.289050704444689,3.726606153670978,2.44437903036531,8,1.0,1
12.222,2.290231163041624,1.6552759921397682,1.1459703843178881,1.7170546671747806,4.53721500154145,9.65659761456839,6.2137953830146655,2.666887788623973,2.4345376084189265,1.7109410088195824,-0.004298319786229872,1.5474035274791473,5.773802059839183,13.648524550804062,5.24246874953204,3.0135915324902705,7,0.875,1
12.282,2.4497887790029758,1.5691467797589687,1.3881281241573127,2.054383922744359,4.330356316107348,9.49135757589425,6.2671146540394105,2.6722618733573182,2.7317107499922297,1.463198984555218,0.3023787058627731,2.122628916639664,5.426524168573727,13.372144259680772,5.311828188729803,3.020927674952658,7,0.875,1
12.342,2.8317514636319654,2.3204937552748546,2.744801351435421,3.1644538764312786,4.441951631373629,8.553491966380598,5.5924143080076,2.8361584819021535,3.4539263263225,3.309299016821999,3.075769160610576,4.313104465345675,5.601419992855457,11.832333554718893,4.472761959027686,3.3362874040983717,8,1.0,1
12.402000000000001,2.653667889278511,2.411023684250353,2.9205181007146703,3.497181829844417,4.261867630148477,6.780425453555827,4.293169811405716,2.530113359637189,3.028370318896586,3.6112024170873305,3.620515234606179,5.145103908428228,5.236338033399402,8.63518960771754,3.053043069542964,2.640990350907787,8,1.0,1
12.462,1.704906544138088,1.5503247989892814,1.837667672729356,2.677159942206607,3.0200022450970265,4.066856378396685,3.4670011660998368,1.6590060971924154,1.078783047839042,1.2107282719140615,1.3250490062277132,3.3310138535504463,3.0420450980014517,4.092583056570203,2.1500708174308545,0.8909666221446734,7,0.875,1
12.522,0.8986640135678738,0.8523487838423596,1.1791557079781707,1.6744159556611367,1.906991731295341,2.239279697574324,2.6088647438761847,1.0036473894999698,-0.3183977672038238,-0.3627008845147053,0.18159910800570303,1.3385821113353487,1.4346047312786803,1.5777381018863155,1.131966815040265,-0.3161906761079616,3,0.375,0
12.582,0.747788861555589,0.8526524905171654,1.0551030023352135,1.5057610373480284,1.4863144750565283,1.7135124315014612,1.74604892134123,0.7701359628999237,-0.5547845712574077,-0.34452677651720093,-0.08018513257535577,1.0737014967731595,0.714345823516921,0.7073767236989635,0.2278345057878546,-0.7203951856478198,1,0.125,0
12.642,0.8999829907723297,0.9983282498957317,1.1491369342624327,1.8879843230637108,1.2653971751906508,1.246598853580697,1.3068007071142038,0.6611205290851796,-0.2642861121887183,0.05267560294280341,0.07314939024356584,1.88336056452236,0.3780734807590311,-0.01807658513031253,-0.25414179621102334,-0.9590566398929435,1,0.125,0
12.702,0.9932650832956853,1.2003829341525625,1.7712888770530824,2.1929556509027672,1.74673454968685,1.1431631462800722,1.0226114227131544,0.43678830050958495,-0.07481314284784875,0.5565907747488473,1.2823618017575773,2.51242346340884,1.1125490755682017,-0.1652957583478242,-0.5615906345600516,-1.4260356068453628,3,0.375,0
12.762,0.947950362444458,1.3392904192399144,2.4543254187765533,2.1477953550953193,1.9502342979282776,1.2659832277082128,1.0051581322415002,0.2547447757899169,-0.16655159573474523,0.947669714648709,2.7851295791785255,2.4075829501460575,1.507053557846038,0.03056303672912686,-0.5786356042719398,-1.7428041706821304,3,0.375,0
12.822,0.7241906613399388,1.2055483113832568,3.030459558222516,1.9095058522161792,1.6488416044543022,1.5758015626366042,1.2747577713600737,0.28462578200324895,-0.6613199811331928,0.5669250409576964,3.9985503409038348,1.9258835994606134,1.0032411822186111,0.5073617227029725,-0.2892279363977824,-1.697385784477689,2,0.25,0
12.882,0.38984774375888037,0.9201865115947427,3.203228287842026,2.947003759008149,1.8891750291392724,1.948884735722558,1.6711233508315018,0.5832845897284435,-1.3154406360440938,-0.19301299731246305,4.396415147114797,3.6990959971633384,1.344965783172951,1.1306001945821726,0.15103999990845318,-1.1819193728202055,3,0.375,0
12.942,0.2293700902487296,0.8491361981244336,2.9229254552334747,3.9908167421348417,2.331145511106125,2.0374385286901453,1.8996104445850834,0.8229867626015606,-1.5528476991991502,-0.3474890822617814,3.7821223291314094,6.112310870118923,2.1248628532318086,1.2699213449445568,0.41576534728731324,-0.6342138899295092,4,0.5,1
13.001999999999999,0.24051239227140053,1.089784086415937,2.1802930515662244,3.4904273901498755,1.9599417081632626,1.4905921355367269,1.5424060429540754,0.7660061150230038,-1.529657734646004,0.2654749005169877,2.0011809660700206,4.843257127350381,1.3941487937523203,0.11507500325499796,-0.06640450506929241,-0.7567721616166637,3,0.375,0
13.062000000000001,0.3228397024358805,1.2304119169642542,1.1424079514036292,1.8473183775790536,1.207151102771767,0.6278780360336853,0.8307814088972748,0.5330860896986067,-1.3923360511355984,0.6534107972595432,-0.03830558497635023,1.2064810444154357,0.2768511857485283,-1.0949040702018642,-0.8146964316868294,-1.2082239266725285,1,0.125,0
13.122,0.4354894092229563,0.9893517971991127,0.732961230082628,0.6515231929794407,1.1347258594906793,0.9113062278776641,0.5310237847228415,0.6057697331633008,-1.1589402056758809,-0.12052464163739547,-0.7502353265458147,-0.6700166502028533,0.1830497442399236,-0.686332693333371,-1.1079869005372558,-1.108340732372395,0,0.0,0
13.182,0.5020764327284315,0.4903540117863743,0.795742229074279,0.7252021832186613,1.0675230592946723,1.2062849309750687,0.50475430917853,1.1196805040826356,-1.0255305641978032,-1.4411338359469852,-0.6247317689397202,-0.4995519178440508,0.052823719659149844,-0.08179331580246198,-1.1334503177578037,-0.1593454825102851,0,0.0,0
13.242,0.6067342875849517,0.2852957456050018,1.0857701832942035,0.8154948343097638,0.7929003125450198,0.94730036889621,0.49739290725108803,1.4499585892265063,-0.8314179669054204,-1.8352176630076087,-0.05595887920764378,-0.2925240314715696,-0.3905307331167935,-0.6089309256013947,-1.1423781215801625,0.6063915251552866,0,0.0,0
13.302,0.6814700584428875,0.42637296487233955,1.4063016027068143,0.6715653439315734,0.6278453771825299,0.43553154132993516,0.5276403065085954,1.245296236556743,-0.6770289397691424,-1.4687841910957236,0.6347317083686563,-0.6100212364053382,-0.6475773661657963,-1.3713557757922252,-1.1119877645318332,0.13406250147224985,0,0.0,0
13.362,0.6282327083585035,0.5722423419372876,1.3916982203398693,0.6478898207723792,0.546756241475396,0.469311461494258,0.5914280296532021,1.0071318554307203,-0.7859977679920016,-1.0727808572056046,0.6058198074615302,-0.6552762249607549,-0.7789735941832889,-1.3235069585365375,-1.0364567670845422,-0.29963579312598293,0,0.0,0
13.422,0.6135568883038477,0.9347193079152525,1.2203889916010737,1.1397942465004347,0.7101584388218661,0.9815987814683246,0.6779689978875988,1.512848489610778,-0.820389123849473,-0.23681161175413865,0.24701002528943325,0.2392820900657917,-0.5612456727644674,-0.5425768644069558,-0.9501969471243884,0.6171404968029297,0,0.0,0
13.482,1.1831671529332104,1.820288440333455,2.3076359047358803,1.9722662321233744,1.6063620978274555,1.6477138001116438,1.4154468676256502,1.7724699836285234,0.07983354388976154,1.8964834762718734,2.051467723084928,1.9160904450341345,0.7061323626003854,0.5719412254062924,-0.287938454056776,1.2499556168014072,4,0.5,1
13.542,1.9087204338613875,2.4946610440380015,3.1771571103380594,2.279864968517225,2.2482044429362493,1.9767226289968076,3.131460138105596,1.743499450797213,1.5956749797855705,3.894150463712806,4.2176757882819595,2.641962333026478,1.9574520255946997,1.1789379728127252,1.5298174313186268,1.1970237001779624,8,1.0,1
13.602,2.1298188036398344,2.362007642478032,2.6339268378759724,1.7140312232778863,1.8319848369366745,1.7400972647174566,3.973302526985506,2.010923716545702,2.1205712865193713,3.5473259919010807,2.892692736381907,1.3356470820058786,1.053451045271107,0.7657894217165567,2.725172568562975,1.6835810642104185,7,0.875,1
13.661999999999999,1.9346830873633,2.1294089157208,2.2292154362203958,1.3635850971857078,0.9712075877738947,1.5060563057894267,3.79739387420243,2.4646563090281246,1.7414656097693217,2.9935530812830056,2.2042969137061847,0.7814228862442651,-0.15719961342822886,0.4220403927953352,2.5438937682306073,2.565087643144619,5,0.625,1
13.722,1.9957858929582297,2.6127782564501385,3.4136603258605747,1.8383656152050227,1.6752412903060796,1.3218762695456259,3.4399896563598644,2.2003155568410944,1.8452479550854026,4.2077938589826545,4.636939435636305,1.754879241717031,0.8192038097399799,0.07720229558219381,2.13906063211468,1.9207067876398891,6,0.75,1
13.782,2.1656830778939047,2.7891615489975776,3.767200692259434,2.115823039037227,2.4348823951088816,1.2809350734164255,2.7250691533946214,1.435206326462205,2.17800894274331,4.704923974680395,5.506321712352047,2.3494609655896297,2.2763127336752165,-0.005494638996154988,1.27584536983383,0.5597732013699134,6,0.75,1
13.842,1.8826350703408474,2.259057144781393,2.7729270953719642,1.7527208103348373,2.3049329369725244,1.896408298536514,1.8654557430469645,1.4413404568797517,1.5804118857349014,3.221505223908102,3.149485618013634,1.4526771130633425,2.0394846724188787,0.9712625745469646,0.34523704255673104,0.5857474910085408,5,0.625,1
13.902000000000001,1.547189901025989,1.6172330361388916,1.5804253967947022,1.028997352351349,1.67043379244723,2.4384153028366145,1.8350999023456511,1.9886615248307684,0.993562641785409,1.6380362117382967,0.9311259131797222,0.08234057271651744,1.0308565900329292,1.9199689393690356,0.3211481951610598,1.5882444438561958,3,0.375,0
13.962,1.6473950228927068,1.4905008259692807,2.032526715326021,1.1251212538372142,1.3327553355327928,2.8681466334145016,2.5701749283677855,2.514987427074919,1.1868642332495898,1.3162271920060415,1.7239106041842545,0.2621644047405501,0.5053077808396882,2.615704961933656,1.120063770758107,2.683935355764298,4,0.5,1
14.022,1.9873751485883957,2.186742857054568,3.1520371759222434,1.6781983691267475,1.6297529137827438,2.7605928446786923,3.553758895135004,2.187827887739772,1.7966283412545556,2.930173571814828,4.145557294190676,1.4002291796994415,0.9028457406363416,2.4217218803134286,2.218431115165338,1.8955138050131612,7,0.875,1
14.082,3.1558399424760775,3.503015533111644,4.521396231262396,2.924501182496288,3.7546823815480375,4.081871676126428,4.745887234901092,2.0539650316537554,3.8364321318630825,6.33723071755524,6.963036980765799,3.6752525463340864,3.8156799040626304,3.9411577698389153,3.5487172913520673,1.5824863679954977,8,1.0,1
14.142,4.226908790869201,4.2037706654924625,5.232731695489573,4.427707003336115,6.585265052484569,8.3873464892241,5.724152123075283,3.550640854611014,6.1077166601310955,8.371987077606365,8.571345753133974,6.8926907980703795,8.71710675109264,10.618345179440693,4.686534464834899,4.392375489133004,8,1.0,1
14.202,3.9584188475700963,3.452069444682984,4.180920371537921,4.431516305163342,6.887846647878876,9.557916725569422,5.80570354092227,4.083178731125922,5.54150649846638,6.102635606630266,5.968234064092354,6.947715076666976,9.445655380150324,13.30631251144577,4.787266495245134,5.77432308949475,8,1.0,1
14.262,3.3882861717048995,2.6819394342647094,2.8359767750386657,3.5180952941770802,5.225426515640895,7.626318860366366,5.161149945846531,3.666356887307605,4.544551493258782,4.384201601952832,3.5400570046881366,5.193304222207341,6.826425009196541,10.239066103513528,4.057899210175569,4.974892001346475,8,1.0,1
14.322,3.483749195133662,3.152264606083652,3.455244525594772,3.4606885214051952,4.602183056036047,7.0919607093979815,4.807426481537972,3.571441043961381,4.73439927156796,5.63642763678634,4.8012523114217736,5.099665775510723,5.874610892213146,9.483969494751705,3.6752574238105447,4.787571272018922,8,1.0,1
14.382,3.231047857673356,3.1945402050832112,3.9937953335402434,3.2324732390757056,3.968001132104147,6.451174599331137,4.1571161671328625,3.086255181251946,4.233151978408269,5.785387928009199,6.045180552914744,4.604609557062934,4.746464522964156,8.279742440442003,2.8551820844598446,3.7264108662364026,8,1.0,1
14.442,2.5359273096724335,2.7430221999456257,3.6219187397773025,2.545143821119024,2.6134756355688493,4.166244581634531,2.765098744084584,2.0650949264456493,2.741908142022762,4.550785657002629,5.148371711790312,3.1666587520376477,2.247428589134817,4.101910013996798,1.2855958125689244,1.6696667680103003,8,1.0,1
14.501999999999999,1.480461040235279,1.9491541224050637,2.544828106300501,1.7695056142771395,1.1192550256078584,1.7253354263997773,1.82432248208849,1.180366691364894,0.5102011290629118,2.222555426651778,2.7682157410947466,1.5087404270363987,-0.3084881329823028,0.3550966512375197,0.3161015378707379,-0.09775892620231093,3,0.375,0
14.562000000000001,0.7690050354474596,0.9850446959832372,1.6431174386640528,1.0710403635537942,0.3591294753770104,0.568328295703518,1.3971476251118586,0.6476142101655249,-0.5311410471337862,-0.15913655782275232,1.1341038589114942,0.17820154893929152,-1.1641285042481897,-1.2071117264467752,-0.1541841932124053,-0.9747622038290107,1,0.125,0
14.622,0.8618241021419073,0.6966956551475139,1.3184529706683004,0.7661284494132333,0.7802309549551327,0.26733249948666477,1.5232086399505473,0.6107047789253062,-0.33801989013549694,-0.7658364856183657,0.43203054618776676,-0.3940341129590971,-0.5144248338129215,-1.5969434647321519,-0.03384678336980445,-1.0341286588235612,0,0.0,0
14.682,0.8119675224871358,0.9579825505957865,0.9652760471415478,0.7003378682386271,1.0033828537683094,0.34520607166465367,1.721676591326364,0.6783323116922015,-0.43369263670300756,-0.10429483707616559,-0.2896227964937491,-0.5195710161151579,-0.03415798190201538,-1.4793411269597705,0.21371591637020182,-0.9056167487226087,0,0.0,0
14.742,0.7502208513000114,1.1189257473294552,0.6504511276475715,0.6603305822381109,0.9032633160611835,0.47529351425817234,1.3334550837815857,0.8026136137220233,-0.5438060653252734,0.37308186343531347,-1.0010130876869534,-0.6054000022922053,-0.20222453086268796,-1.254752837049959,-0.27276562446070474,-0.6643683460655391,0,0.0,0
14.802,0.7531952579238713,1.0132225660081815,0.35015197633725764,0.6289888616978847,0.8661344719970036,0.5347940070461421,0.8793145527981799,0.7775599246139842,-0.5392044660601291,0.07222524744037842,-1.5689305876631474,-0.6671968697416196,-0.2561645716041144,-1.152164572822116,-0.7194842243352344,-0.7240028282535323,0,0.0,0
14.862,0.7065455290670782,0.7409255654002808,0.42847777007018445,0.7002311473613415,0.8513002006216236,0.46109825691965683,0.8446264162765161,0.6109150481269126,-0.6304928835118669,-0.681835966765996,-1.4388396135044765,-0.5241556591091885,-0.28844266635008853,-1.2875099516075152,-0.7524469973948723,-1.0445232239617752,0,0.0,0
14.922,0.6929945538450709,0.4745865636667314,0.7316205861656045,0.7024328428180457,0.6105994127262536,0.32851572997024675,0.7501251109812466,0.5250057177828659,-0.6554065042450314,-1.3425377595827668,-0.8018210926177765,-0.5238139949349518,-0.7331368580205827,-1.4912691715712236,-0.8773756555062274,-1.203871044101021,0,0.0,0
14.982,0.6227525939477746,0.3875121793888242,0.7982063369369827,0.5906318447085378,0.3611972572239538,0.3073404273908828,0.5226339212616442,0.46463754824694725,-0.8066179726041973,-1.540243712266645,-0.6247711353497721,-0.7577062370364435,-1.1015832519523012,-1.522901138599268,-1.1368548399838525,-1.326166768735667,0,0.0,0
15.042,0.4647598364627064,0.435945835739091,0.7019022074514498,0.6123596407497808,0.5445278981290789,0.41411523414792273,0.6068849668926899,0.36704640586684595,-1.106608600536923,-1.4176389983362654,-0.8226934040204816,-0.7134292980845228,-0.8502227695250558,-1.363667061150518,-1.0547891271511232,-1.5269457864410418,0,0.0,0
15.102,0.3756176469462416,0.4441992869971649,0.8787307035957097,0.7011053508069964,0.8518846703832812,0.4710114101699453,0.90692710720836,0.2913110375876208,-1.2692358261528807,-1.3937052104914096,-0.4812270122533732,-0.5188444985745134,-0.3035387176059642,-1.2595304747044416,-0.6992825171429234,-1.6640616924153975,0,0.0,0
15.161999999999999,0.3267546165589304,0.39110559344021845,0.925483858759262,0.6319838235115005,1.0885375483295674,0.4507466619208204,1.0974000681625307,0.326910303758185,-1.364820744811866,-1.5320408723200771,-0.3617815229655936,-0.674455152616611,0.10219670243463393,-1.2936808541615377,-0.47273343387259253,-1.6003765145762703,0,0.0,0
15.222,0.33885957052453913,0.40709235101438684,0.6702076719039893,0.5051789711954461,1.0267824419114804,0.544351903080625,1.0123765266617524,0.5482046328953862,-1.3512833711856544,-1.4970915890928904,-0.9243441673890403,-0.9263758220308734,-0.024835935025060884,-1.1510808545813362,-0.5881523780035428,-1.2180721401421704,0,0.0,0
15.282,0.5307361595183433,0.5825125010446887,0.4317808207558473,0.573966532471223,0.6831178077502063,0.5907157589524389,0.678790175718687,0.9550711814597378,-1.0121063694728534,-1.0721836863919187,-1.386587420607939,-0.7992922825534795,-0.6022372070436219,-1.0656648402632871,-0.9791103666826327,-0.43181791619502624,0,0.0,0
15.342,0.584027215718871,0.708904007194708,0.3392487513151807,0.668008480611765,0.520233200268801,0.5021975326393611,0.6518151984846932,1.1211062524874387,-0.882857876634697,-0.7037388276720127,-1.564574638935582,-0.5907347882209105,-0.8223332726143481,-1.2158599502936018,-1.0016689562151306,-0.0428816656700017,0,0.0,0
15.402000000000001,0.44868829109826014,0.6381353123002551,0.4600711198308257,0.5653392540578304,0.5392595943903037,0.7484734334291221,1.0142415511964509,0.876883669374002,-1.1470929853983456,-0.90411593283915,-1.3615348861460779,-0.824605809125884,-0.790283729718579,-0.8957418440049983,-0.5921435924582921,-0.5826868382578135,0,0.0,0
15.462,0.47875565989946606,0.5889440408851795,0.696821741519563,0.4252009187375258,0.5391112785315163,1.124723087944747,1.0965630387964647,0.6531969412614765,-1.0884032113914102,-1.0222687017950223,-0.8534121600593618,-1.0850865350413883,-0.7931409059189001,-0.22446234231870243,-0.4795002900431801,-0.9622108226557997,0,0.0,0
15.522,0.5530816197402998,0.6279475872450462,0.706516043026407,0.5494154530243173,0.6453924527994028,1.1147792686676419,0.9291340322751658,0.8033422820514667,-0.9249474247741563,-0.9191515645402554,-0.819685872219209,-0.8612155727266259,-0.6265798049246086,-0.23647561062674508,-0.6644462624918707,-0.674267684584475,0,0.0,0
15.582,0.6510069766443358,0.5218219175718404,0.5547031424907864,0.7929246694220078,0.6908028133492086,0.7554858871577801,0.8621748268934635,0.8021724947746212,-0.7544964039985533,-1.2261934419070024,-1.1226622211599486,-0.35882920414968594,-0.5412566509800658,-0.8581966406976207,-0.7343489817013995,-0.6746548860327816,0,0.0,0
15.642,0.7553283326784669,0.41030005990965757,0.5989905605180458,1.08397227257847,0.7232338322239177,0.4824295574887618,0.7665405034164475,0.6587369660910815,-0.5451259606460043,-1.4837844243417664,-1.034619046078176,0.23244280386885297,-0.4962122959312563,-1.252634825535926,-0.8497023778101259,-0.9442450769184073,0,0.0,0
15.702,0.6022158779386612,0.49354541941416297,0.639684579642811,1.18803294741516,0.9106885646176931,0.5294971965574935,0.5659459167117112,0.7293368208168687,-0.9097960998946855,-1.2770380484769073,-0.9428912992039816,0.46564125268161805,-0.19558369228289954,-1.173385643762196,-1.0773703295681207,-0.8129411684614153,0,0.0,0
15.762,0.35818648618203985,0.5905800976771179,0.5208758347122509,0.8972136172653514,0.9495650792550427,0.5831351220987618,0.45795240320866215,0.8093180057380328,-1.3098660286609916,-1.0113026449528786,-1.2055282736169417,-0.24856147670322878,-0.12205529181058246,-1.0729037774158803,-1.1941458799356213,-0.642889383309721,0,0.0,0
15.822,0.4433254968794889,0.6104689801749448,0.509643512395927,0.558330549232454,0.7499765286495376,0.5531770791233396,0.7739386280357052,0.8959365875894866,-1.1601684481809087,-0.9567174896189026,-1.2307632054810143,-0.8654597200213376,-0.4671491685550806,-1.1214747798026663,-0.8995913116262145,-0.4823949774506922,0,0.0,0
15.882,0.7115116052507301,0.5513691080323198,0.7628640215810846,0.9574931083190015,0.6140293828597403,0.5429347724879537,1.0714477139822514,0.9951297624984207,-0.6698269566538921,-1.117189784631642,-0.7258056013091457,-0.15690493693951443,-0.6680066509340644,-1.1383496202439474,-0.5116214071989469,-0.27964316996095845,0,0.0,0
15.942,1.0526488167283774,0.44728662259284657,0.8191192820751867,1.129239751991908,0.6115671539169373,0.5647467512748628,0.9304092506871485,0.8611380845617401,0.00484632673689218,-1.3943320838520794,-0.5843078202893263,0.323938856978196,-0.6725205729969304,-1.103827775456242,-0.7028947042393155,-0.5812623078726292,0,0.0,0
16.002,1.175352799948626,0.5424149805787138,0.596090714535416,0.7935851775128074,0.5244397146900774,0.48784016864619045,0.5836240916077431,0.5800071278547752,0.2699951275741111,-1.210922362873056,-1.0739385266753787,-0.44672672653162887,-0.8245671224801249,-1.2515501353992657,-1.0588040463034991,-1.1244136685640351,0,0.0,0
16.062,1.0192731444562875,0.9475642761728401,0.6179860152916269,0.4670710054270867,0.616931701155875,0.43279946446972933,0.7546333765189722,0.4776879452730179,-0.043395153568502765,-0.19692881429308964,-1.061347637535808,-1.009092939050838,-0.7048924473344479,-1.3407304729974363,-0.8965983890018377,-1.2987106645950763,0,0.0,0
16.122,0.9724399081224174,1.1659533949976308,1.282152540443202,0.6356087709682603,0.9234250750232298,0.6634776319343642,0.9944591248900639,0.6245225512484017,-0.12050418104484632,0.48235880087123756,0.1884223378770075,-0.7036159018142826,-0.19082889840847153,-0.9858171249073622,-0.5939864341848089,-1.0321666477196425,0,0.0,0
16.182,0.9458625621581332,0.9307264526153692,1.6388251498426518,0.784259036657301,0.9106058114052126,0.7028727004861568,0.9058060413570792,0.7254050315362376,-0.18545469429495332,-0.2607695136497893,1.120222468802926,-0.3565821945599114,-0.21593774807350616,-0.8979078931133754,-0.7014199124478889,-0.8114506052248364,1,0.125,0
16.242,0.6932149347412538,0.5798658809720442,1.35881202148621,0.6581461437675886,0.6377919237302675,0.6063912437043442,0.6611855270376956,0.6278504851834982,-0.6955956448559691,-1.072797014800699,0.4687337706126247,-0.6503584349349216,-0.6464759161234698,-1.0526527408496278,-0.9663749432754146,-1.021275765186679,0,0.0,0
16.302,0.549844634608652,0.832224251430897,0.8174823710422124,0.4009946936933187,0.5382312708461544,0.8657869956665469,0.536041462358245,0.4743267777433375,-0.9339311958291366,-0.4958731251210798,-0.6695842111096092,-1.1640232489075981,-0.7897374192816452,-0.6699485202072282,-1.102979588875195,-1.3125597056386444,0,0.0,0
16.362000000000002,0.5812323255240449,0.9901347534767178,0.4003533330784825,0.28820793524946575,0.5773613403813247,0.8991076872359302,0.6657838144132165,0.5567283503312672,-0.8720015465311969,0.007342044543304431,-1.5928206005055696,-1.362032254952496,-0.7282807362668705,-0.6025100302091857,-0.9754026148746203,-1.1696405153329277,0,0.0,0
16.422,0.5210606150484393,0.7486368582480211,0.10142200666876929,0.2728446474241173,0.6319041221671232,0.5863628079549569,0.7397025578661832,0.6437786509574503,-0.9988806566588709,-0.7083839329799101,-2.1019666080071535,-1.3931642326835698,-0.6364946706139414,-1.1117674667698527,-0.8777536492705617,-0.9747683942394816,0,0.0,0
16.482,0.3678324093709713,0.41228590859332614,0.08843060296635971,0.3303639944508525,0.6269192033695037,0.43348275961541943,0.6121709128358179,0.5660324904146018,-1.3081115201922577,-1.5101206097985829,-2.1126116308074523,-1.2948871470110754,-0.6464318322732935,-1.3161388913686043,-1.0205184865911858,-1.1318355989881026,0,0.0,0
16.542,0.2901702302290858,0.3788287339184961,0.20603406294900187,0.5084336334417731,0.4856290640620753,0.4140644426381479,0.6833681078503916,0.5811099282004943,-1.4380005608318498,-1.5838396043008103,-1.8770486003227067,-0.9417301109940289,-0.9219950212420911,-1.349455700976457,-0.948787243838438,-1.1039133406250363,0,0.0,0
16.602,0.357706106465255,0.5063465111891401,0.26997896287238815,0.6848474980796316,0.2607814986868564,0.47212125053641635,0.8011288036662381,0.688816780387278,-1.3105145759515704,-1.2481041219999336,-1.7088808277413563,-0.5634028735698301,-1.270006533058272,-1.2662959413310044,-0.8035963618669758,-0.8834556441723462,0,0.0,0
16.662,0.4540685211693903,0.4760025122761355,0.35230810055923945,0.7713067221227023,0.2266229259428818,0.5397666512760627,0.7370853332273497,0.7102790828473644,-1.122831203536905,-1.3501264668857893,-1.554066643154611,-0.37869084088619204,-1.309716873986422,-1.1460613108926851,-0.8770455506325595,-0.8374464278058763,0,0.0,0
16.722,0.48387976649832465,0.29066519918039924,0.41529215260873414,0.6212851635267738,0.31006389025986286,0.47647045777898006,0.6037849139579511,0.6724668311878188,-1.0593142187137718,-1.83660818998757,-1.4101971625728087,-0.7628023394044631,-1.171199785763499,-1.2534763837847556,-1.0286808299767638,-0.9141544837544048,0,0.0,0
16.782,0.4210110878869143,0.3448670604025539,0.3503123298513288,0.32783568920295786,0.36575524773627116,0.43965568297587504,0.46042004346063453,0.569709203523952,-1.1858320575325492,-1.736439205140142,-1.5580262608793927,-1.3147298411804458,-1.0735893808557346,-1.3071394766904738,-1.1940764157889787,-1.1296025132289433,0,0.0,0
16.842,0.33788512262648734,0.6305832030191637,0.30995383899270496,0.31514810087693534,0.38193070222686354,0.41030858084361127,0.5201902563866172,0.43800231698185166,-1.346087679397458,-0.9839059816778151,-1.6303019039008888,-1.3227884850421396,-1.046252484439417,-1.3625529256428466,-1.1389891082590302,-1.3794159701983135,0,0.0,0
16.902,0.27065486985229387,0.7185964467214172,0.4177504085331525,0.4658139945502849,0.3880103196961093,0.3089829254005673,0.6402899306608579,0.4397092727065011,-1.4743304504692218,-0.6874593954461803,-1.4138225079678037,-1.0220769636563773,-1.0364139686917795,-1.5240132919594795,-0.9872128596467227,-1.3787236642435559,0,0.0,0
16.962,0.2745900636604135,0.5776298164403009,0.455792083679763,0.7957935069859375,0.4277125491089548,0.3075060017696529,0.5653980058444091,0.6057344790984794,-1.4727883577557608,-1.0686287963021894,-1.3253027533970405,-0.402778103039472,-0.9737925268148482,-1.5260188497775715,-1.0745731897193902,-1.0692489347486054,0,0.0,0
17.022,0.48575638801346416,0.5731501582103179,0.45364416822748693,0.9521946396160617,0.4597129245723077,0.45027270166838035,0.5229902501986043,0.7942107402811721,-1.1142519421571448,-1.0749340813297847,-1.3333726385558007,-0.022454609472256554,-0.9197972508247355,-1.310938160886235,-1.1149999505605355,-0.6874688574893412,0,0.0,0
17.082,0.6283135277841378,0.6464277073234268,0.5668570853924579,0.7271272586540809,0.4215097110643947,0.7206057533495381,0.5746703695648384,1.1894992604304961,-0.7847184723977793,-0.8704273763329952,-1.1072913261548052,-0.5603123981679964,-0.9853423990733351,-0.8883970099701658,-1.0547780007148917,0.024504206013493502,0,0.0,0
17.142,0.5958515973382751,0.6051196253882346,0.6102872198575776,0.38861107912904336,0.4200679299578106,0.9130682624305734,0.6362031946832708,1.4483459778262544,-0.8460685213909644,-0.9822507698958863,-1.0057782557868735,-1.189900989861088,-0.9912215571164524,-0.5438736202272285,-0.9881894465806126,0.5989482885339422,0,0.0,0
17.201999999999998,0.5746516075764165,0.7547817767046247,0.4740506721264059,0.4048147417482355,0.6008849234639273,0.8146737852920409,0.658698825894934,1.1930657948291001,-0.884064623808546,-0.6366009994767156,-1.316473529683852,-1.158038825314312,-0.7155456903621259,-0.7286260936625562,-0.962162949607463,0.017771951659202433,0,0.0,0
17.262,0.609970777324709,0.875846423575373,0.3828376700006212,0.712252046078303,0.6242195646560169,0.6190244723362804,0.56004724161954,0.7263293098570918,-0.8147409602971689,-0.2702307439306005,-1.4765517472847864,-0.562972285435514,-0.6705435361309613,-1.02455880238312,-1.0772615332905489,-0.8427800774368439,0,0.0,0
17.322,0.6906578903231045,0.7643088985330315,0.37641112871476806,0.8944607601459675,0.5277671443877924,0.74848403462324,0.5201126151141857,0.4752678544918434,-0.6745123020507809,-0.5707199451597047,-1.4918290086328847,-0.12966433086873586,-0.8285408546173502,-0.8307137787017749,-1.1174672221020001,-1.3384403858137475,0,0.0,0
17.382,0.9798964275506172,0.7196793677833239,0.40685507442284713,0.7737793023025459,0.9912333773934257,0.845389908361296,0.6183348359666695,0.3488219577892992,-0.15088044783086219,-0.6808888764307444,-1.4461153412305843,-0.4086537800941419,-0.19800026380187152,-0.652366966055849,-1.0096900225933274,-1.5647238373054997,0,0.0,0
17.442,1.031909380111482,0.9761159704739787,0.7907905616920617,0.5231715217556304,1.2957599507059026,0.7143030692227424,0.7555096367072544,0.5732093932157857,-0.04371407844058663,-0.061978299525228854,-0.7537205138009441,-0.9048826433969391,0.42803525723568875,-0.8767100298971578,-0.8580693300546699,-1.185775862023294,0,0.0,0
17.502,0.6473641289595603,1.1625883299900184,1.1329940849286753,0.5423985745409314,1.0797312886263912,0.6694755832694068,0.9481048248173539,0.7784313584254527,-0.9603723293295451,0.47716124380474617,0.054019907454198324,-0.8771460702256978,0.038940995457223904,-0.9395087451973126,-0.6461073214876326,-0.7148623359060519,0,0.0,0
17.562,0.18996983930564793,0.9997271693075769,0.9962688374527255,0.9263378269003748,0.6862258509493729,0.7086504056204354,1.1023195506502617,0.8016568101149453,-1.6807957359179488,-0.0025827256601294777,-0.30570242767533673,-0.14786010751332357,-0.5736276926237,-0.8709401221530492,-0.4660366964556944,-0.6601412419860694,0,0.0,0
17.622,0.3302772913639036,0.7039961816564962,0.5557325688868756,1.2062042898842051,0.5068447160732659,0.6801752700263093,1.1069222581476061,0.8884257560490888,-1.4664922358928278,-0.7352724545879262,-1.1633839279173412,0.5037331343364745,-0.8474661068387913,-0.9153805355901942,-0.4597393840529696,-0.5006032675145115,0,0.0,0
17.682,0.5959729783458135,0.5965085605705338,0.49600025819310284,1.22288283974491,0.8108296857293745,0.7154810579918022,1.028405753485212,1.022503592143837,-0.8864334234789003,-0.9935578413114005,-1.2508402745237814,0.5449485123003371,-0.45964482455764794,-0.8596901749937621,-0.5482819982848359,-0.22432513005777965,0,0.0,0
17.742,0.7259409486609372,0.5270368474210828,0.6165700287008863,1.0170572580086468,1.3497144595773436,0.8201516947478327,0.8701124346194214,0.9299573126645511,-0.5911638692679515,-1.1844062864607094,-0.9937483819907783,0.08290467844749465,0.46659102205725156,-0.6929191065119572,-0.737444458309043,-0.43983594450152763,0,0.0,0
17.802,0.8202636378715141,0.48475506489523446,0.9471284781569643,0.7099421825642513,1.4028598832157828,0.8312926438911779,0.6451215036269002,0.616158046796024,-0.41562974820314613,-1.291498775030422,-0.38424677761839604,-0.5359760198908347,0.5946957665852799,-0.673822963073618,-0.9854017913033842,-1.1056555230794078,0,0.0,0
17.862000000000002,0.8084313652034304,0.609544484558689,1.2564367304038844,0.6655868578621815,1.0258241510387847,0.7052507798463025,0.5112005498081058,0.457740768581705,-0.445429289711087,-0.9859711633283288,0.32408229436112485,-0.6036399248081319,-0.02092526327737103,-0.8830166777878056,-1.1288758732446948,-1.3527533486286274,0,0.0,0
17.922,0.672692082134843,0.7013713960561013,1.107091500024265,0.7153950484041797,0.7435589871380619,0.5332012237555636,0.5730743386218586,0.6033672801820988,-0.7011414015992866,-0.7221766109333032,-0.05200327506987179,-0.4956624658068846,-0.46937017388950814,-1.1752420077255985,-1.0664538811248268,-1.0631938534973748,0,0.0,0
17.982,0.7166147937736009,0.5855302968366366,0.6704433697524623,0.5692910275976684,0.6599681890011715,0.38760855871030403,0.6870340455637868,0.6855348076662895,-0.6188618127150377,-1.069540897866676,-0.9263159478073826,-0.8209802168771457,-0.5954512107341713,-1.3950268165972137,-0.9304880383336744,-0.8862583907115121,0,0.0,0
18.042,0.7709280351380212,0.3756437921485187,0.5288039122771101,0.49305886526871207,0.7226543655957071,0.48148961060730633,0.8825958628697949,0.6372616458023861,-0.5049729989229929,-1.5966330214991624,-1.1702668177444326,-0.9523598465744998,-0.48992192058713185,-1.2660057682953627,-0.7292200247190966,-0.9917168520318919,0,0.0,0
18.102,0.860546143775476,0.3583202030474936,0.5712682267846871,0.4900686900501132,0.7174564374979477,0.6219998217737404,1.0875345912645678,0.4638123058873734,-0.349069267682187,-1.6307555299761631,-1.0801286042490337,-0.9671192685822864,-0.4970289198885251,-1.0200285714193065,-0.48650661293849234,-1.3679073801913946,0,0.0,0
18.162,0.9512219372443449,0.4353045150450693,0.5394926268044722,0.4220664294713092,0.6885043168181609,0.6149337412116404,1.0660938936824076,0.262028498020146,-0.1675852803818434,-1.4186512993173268,-1.1527476304229918,-1.109550363225316,-0.5439601901668272,-1.0257163191463068,-0.508901404432984,-1.742933999372075,0,0.0,0
18.222,0.7728878315725898,0.4731407558611592,0.44035856368963266,0.8087208775374574,0.8744257137531539,0.5652344131749852,1.0639393694361605,0.25040824574740234,-0.560044645880209,-1.3157827536232058,-1.3614322443966136,-0.4689785484090924,-0.27426288935110393,-1.1015420561434954,-0.5112290775858325,-1.7675120404442195,0,0.0,0
18.282,0.4829921816050245,0.4784425204631382,0.3526051501895641,1.262238418584602,1.4088814357818358,0.5542544610436575,1.0651425582965655,0.5451613902401877,-1.079526729870481,-1.301945361840212,-1.5392518856532773,0.5775353700733025,0.5507168140328763,-1.1209543586954245,-0.5172151345793431,-1.261860725247548,0,0.0,0
18.342,0.5736411342623536,0.5858985425259194,0.32037169007274796,1.2937526221739626,1.8973308228535413,0.45997535054805244,0.7648374855333933,0.6944041612844473,-0.9341617050139438,-1.0520251784846733,-1.6036820776848029,0.6637033990078804,1.4176651766095827,-1.2914347360664733,-0.9067886359300134,-0.8871527634115051,1,0.125,0
